            sqrt(s) [GeV]               sigma [mb]
       0.0254109146410337     0.000165268355449118
       0.0313378345994783     0.000197068741999124
       0.0372647545579228      0.00028166393038661
       0.0431916745163673     0.000402556750755091
       0.0491185944748118       0.0005535372967876
       0.0550455144332563     0.000731791016054671
       0.0609724343917008     0.000935998881219089
       0.0668993543501453      0.00116557895202032
       0.0728262743085899       0.0014203451585736
       0.0787531942670344      0.00170033983296143
       0.0846801142254789      0.00200574570682954
       0.0906070341839234      0.00233683693876645
       0.0965339541423679      0.00269395076264047
        0.102460874100812      0.00307747012583563
        0.108387794059257      0.00348781294667561
        0.114314714017701      0.00392542513693276
        0.120241633976146      0.00439077598753376
         0.12616855393459      0.00488435504333309
        0.132095473893035      0.00540666994797995
        0.138022393851479      0.00595824491889303
        0.143949313809924      0.00653961966291839
        0.149876233768369      0.00715134857834945
        0.155803153726813      0.00779400017997985
        0.161730073685258      0.00846815664934523
        0.167656993643702      0.00917441351539277
        0.173583913602147      0.00991337938700646
        0.179510833560591       0.0106856757606401
        0.185437753519036       0.0114919368546527
         0.19136467347748       0.0123328094839131
        0.197291593435925       0.0132089529834803
        0.203218513394369       0.0141210389336758
        0.209145433352814       0.0150697514939862
        0.215072353311258       0.0160557868434421
        0.220999273269703       0.0170798534029256
        0.226926193228147       0.0181426718247788
        0.232853113186592       0.0192449745993173
        0.238780033145036       0.0203875064713543
        0.244706953103481       0.0215710239387579
        0.250633873061925       0.0227962954530636
         0.25656079302037       0.0240641013708209
        0.262487712978814       0.0253752337145942
        0.268414632937259       0.0267304962410472
        0.274341552895703       0.0281307044802204
        0.280268472854148       0.0295766853277303
        0.286195392812592       0.0310692773328915
        0.292122312771037       0.0326093304439331
        0.298049232729481       0.0341977058770442
        0.303976152687926       0.0358352765518222
         0.30990307264637       0.0375229258518843
        0.315829992604815       0.0392615490949236
        0.321756912563259       0.0410520520074649
        0.327683832521704       0.0428953516308728
        0.333610752480148        0.044792375733822
        0.339537672438593       0.0467440627845902
        0.345464592397037       0.0487513619929862
        0.351391512355482       0.0508152331810866
        0.357318432313927       0.0529366464848765
        0.363245352272371       0.0551165825065237
        0.369172272230816       0.0573560318672549
         0.37509919218926        0.059655995791474
        0.381026112147705       0.0620174849900088
        0.386953032106149       0.0644415203381346
        0.392879952064594       0.0669291325088932
        0.398806872023038       0.0694813615487554
        0.404733791981483        0.072099257294737
        0.410660711939927       0.0747838792989915
        0.416587631898372       0.0775362957318617
        0.422514551856816       0.0803575843892075
        0.428441471815261       0.0832488317966287
        0.434368391773705       0.0862111337288216
         0.44029531173215       0.0892455944233814
        0.446222231690594       0.0923533270670595
        0.452149151649039       0.0955354531598601
        0.458076071607483       0.0987931025591835
        0.464002991565928        0.102127413640038
        0.469929911524372        0.105539532719189
        0.475856831482817        0.109030614073086
        0.481783751441261        0.112601820070503
        0.487710671399706        0.116254320713963
         0.49363759135815        0.119989293651274
        0.499564511316595        0.123807924098641
        0.505491431275039        0.127711404867721
        0.511418351233484        0.131700935551516
        0.517345271191928         0.13577772337654
        0.523272191150373        0.139942982463014
        0.529199111108817        0.144197933870017
        0.535126031067262        0.148543805622918
        0.541052951025706        0.152981832408574
        0.546979870984151        0.157513255530951
        0.552906790942595        0.162139323088641
         0.55883371090104        0.166861289367379
        0.564760630859484        0.171680415239138
        0.570687550817929        0.176597967876545
        0.576614470776374        0.181615220643943
        0.582541390734818        0.186733453100062
        0.588468310693263        0.191953950926758
        0.594395230651707        0.197278005944133
        0.600322150610152        0.202706915776264
        0.606249070568596        0.208241984184781
        0.612175990527041        0.213884520830014
        0.618102910485485        0.219635841426743
         0.62402983044393        0.225497267284904
        0.629956750402374        0.231470125677536
        0.635883670360819        0.237555749804025
        0.641810590319263        0.243755478631416
        0.647737510277708        0.250070656989205
        0.653664430236152        0.256502635600124
        0.659591350194597        0.263052771057698
        0.665518270153041        0.269722425944625
        0.671445190111486        0.276512968630193
         0.67737211006993        0.283425773593349
        0.683299030028375        0.290462221349587
        0.689225949986819        0.297623698383497
        0.695152869945264        0.304911597625619
        0.701079789903708        0.312327318142717
        0.707006709862153         0.31987226516833
        0.712933629820597        0.327547850567819
        0.718860549779042        0.335355492692228
        0.724787469737486        0.343296616519936
        0.730714389695931        0.351372653795024
        0.736641309654375        0.359585043168664
         0.74256822961282        0.367935230297284
        0.748495149571264        0.376424668027167
        0.754422069529709        0.385054816517399
        0.760348989488153        0.393827143413616
        0.766275909446598        0.402743123962793
        0.772202829405042        0.411804241357846
        0.778129749363487        0.421011986951743
        0.784056669321932        0.430367859231316
        0.789983589280376        0.439873366794482
        0.795910509238821         0.44953002568962
        0.801837429197265        0.459339361046466
         0.80776434915571        0.469302906999219
        0.813691269114154        0.479422207070911
        0.819618189072599        0.489698814244272
        0.825545109031043        0.500134291124899
        0.831472028989488        0.510730210306851
        0.837398948947932        0.521488154809533
        0.843325868906377        0.532409718055878
        0.849252788864821        0.543496503768913
        0.855179708823266         0.55475012754479
         0.86110662878171        0.566172215665626
        0.867033548740155        0.577764406104389
        0.872960468698599         0.58952834870105
        0.878887388657044        0.601465705434813
        0.884814308615488        0.613578150642876
        0.890741228573933        0.625867371442681
        0.896668148532377        0.638335067879426
        0.902595068490822        0.650982953327463
        0.908521988449266        0.663812754731887
        0.914448908407711        0.676826212962952
        0.920375828366155        0.690025082985777
          0.9263027483246        0.703411134376605
        0.932229668283044        0.716986151428258
        0.938156588241489        0.730751933538115
        0.944083508199933        0.744710295513701
        0.950010428158378        0.758863067827789
        0.955937348116822        0.773212096320526
        0.961864268075267        0.787759245847184
        0.967791188033711        0.802506393488591
        0.973718107992156        0.817455436472553
          0.9796450279506        0.832608288132676
        0.985571947909045         0.84796687942643
         0.99149886786749        0.863533158935707
        0.997425787825934        0.879309093372449
         1.00335270778438        0.895296667762044
         1.00927962774282        0.911497885684916
         1.01520654770127        0.927914769573822
         1.02113346765971         0.94454936100548
         1.02706038761816        0.961403720891192
          1.0329873075766         0.97847992979188
         1.03891422753505        0.995780088025662
         1.04484114749349         1.01330631621145
         1.05076806745193         1.03106075514192
         1.05669498741038         1.04904556621167
         1.06262190736882         1.06726293151287
         1.06854882732727         1.08571505417472
         1.07447574728571         1.10440415842371
         1.08040266724416         1.12333248982949
          1.0863295872026         1.14250231549423
         1.09225650716105         1.16191592417786
         1.09818342711949         1.18157562646238
         1.10411034707794         1.20148375487691
         1.11003726703638         1.22164266403448
         1.11596418699482         1.24205473081928
         1.12189110695327          1.2627223542624
         1.12781802691171         1.28364795598397
         1.13374494687016         1.30483397994887
          1.1396718668286          1.3262828926891
         1.14559878678705         1.34799718330582
         1.15152570674549         1.36997936352142
         1.15745262670394          1.3922319676718
         1.16337954666238         1.41475755273428
         1.16930646662082         1.43755869827803
         1.17523338657927         1.46063800649153
         1.18116030653771         1.48399810199648
         1.18708722649616         1.50764163200782
          1.1930141464546         1.53157126602278
         1.19894106641305         1.55578969586204
         1.20486798637149         1.58029963541295
