            sqrt(s) [GeV]               sigma [mb]
        0.645787727175995      0.00011959475809376
        0.648598180292673       0.0712955328294243
        0.651408633409351        0.100333883787853
        0.654219086526029        0.122652452793938
        0.657029539642707         0.14159758468479
        0.659839992759385         0.15844016118578
        0.662650445876063        0.173820731505571
        0.665460898992741        0.188114411892882
        0.668271352109419        0.201562776274562
        0.671081805226097        0.214332013180625
        0.673892258342775        0.226542147421632
        0.676702711459453        0.238283161856731
        0.679513164576132        0.249624542738805
         0.68232361769281        0.260621253344446
        0.685134070809488        0.271317643175214
        0.687944523926166        0.281750102147293
        0.690754977042844        0.291948919193882
        0.693565430159522        0.301939618448035
          0.6963758832762        0.311743941840603
        0.699186336392878        0.321380586078323
        0.701996789509556        0.330865765036081
        0.704807242626234        0.340213645575778
        0.707617695742912          0.3494366899042
         0.71042814885959        0.358545927852096
        0.713238601976269        0.367551175800758
        0.716049055092947        0.376461214523979
        0.718859508209625        0.385283934938732
        0.721669961326303        0.394026458588246
        0.724480414442981        0.402695237997901
        0.727290867559659        0.411296140860426
        0.730101320676337        0.419834521110634
        0.732911773793015        0.428315279321796
        0.735722226909693        0.436742914296693
        0.738532680026371        0.445121567379395
        0.741343133143049        0.453455060729173
        0.744153586259727        0.461746930499154
        0.746964039376406        0.470000455762502
        0.749774492493084        0.478218683842664
        0.752584945609762        0.486404452557256
         0.75539539872644        0.494560409846595
        0.758205851843118        0.502689031152484
        0.761016304959796        0.510792634915125
        0.763826758076474        0.518873396371338
        0.766637211193152        0.526933359963915
         0.76944766430983        0.534974450399576
        0.772258117426508        0.542998482693574
        0.775068570543186         0.55100717126413
        0.777879023659864        0.559002138141288
        0.780689476776542        0.566984920360999
        0.783499929893221        0.574956976956429
        0.786310383009899        0.582919694941814
        0.789120836126577        0.590874394835216
        0.791931289243255        0.598822336228111
        0.794741742359933        0.606764722134093
        0.797552195476611        0.614702703222782
        0.800362648593289        0.622637381814718
        0.803173101709967        0.630569815197124
        0.805983554826645        0.638501019032574
        0.808794007943323        0.646431969841945
        0.811604461060001        0.654363607927255
        0.814414914176679        0.662296839353359
        0.817225367293358        0.670232538161124
        0.820035820410036        0.678171548186026
        0.822846273526714        0.686114684689091
        0.825656726643392        0.694062735775032
         0.82846717976007        0.702016463848787
        0.831277632876748        0.709976606945426
        0.834088085993426        0.717943879528131
        0.836898539110104        0.725918973808383
        0.839708992226782        0.733902560601141
         0.84251944534346         0.74189529028782
        0.845329898460138        0.749897793676784
        0.848140351576816        0.757910682839899
        0.850950804693494        0.765934551729996
        0.853761257810173        0.773969977431953
        0.856571710926851        0.782017520375887
        0.859382164043529        0.790077725416582
        0.862192617160207        0.798151122354241
        0.865003070276885        0.806238226755946
        0.867813523393563        0.814339540510384
        0.870623976510241        0.822455552577885
        0.873434429626919        0.830586739556094
        0.876244882743597        0.838733566273751
        0.879055335860275        0.846896486418152
        0.881865788976953        0.855075943242858
        0.884676242093631        0.863272369504225
         0.88748669521031        0.871486189039557
        0.890297148326988        0.879717816032735
        0.893107601443666        0.887967656445367
        0.895918054560344         0.89623610796986
        0.898728507677022        0.904523560609956
          0.9015389607937        0.912830397033915
        0.904349413910378        0.921156992983816
        0.907159867027056        0.929503717611336
        0.909970320143734        0.937870933826705
        0.912780773260412        0.946258998666803
         0.91559122637709        0.954668263478345
        0.918401679493768        0.963099074334585
        0.921212132610447        0.971551772222275
        0.924022585727125        0.980026693413704
        0.926833038843803        0.988524169472682
        0.929643491960481        0.997044527804245
        0.932453945077159         1.00558809147302
        0.935264398193837          1.0141551799664
        0.938074851310515         1.02274610885362
        0.940885304427193         1.03136119018779
        0.943695757543871         1.04000073271231
        0.946506210660549         1.04866504196725
        0.949316663777227         1.05735442046773
        0.952127116893905         1.06606916787974
        0.954937570010584         1.07480958107087
        0.957748023127262         1.08357595434539
         0.96055847624394         1.09236857953522
        0.963368929360618         1.10118774608028
        0.966179382477296         1.11003374122316
        0.968989835593974         1.11890685005436
        0.971800288710652         1.12780735565242
         0.97461074182733         1.13673553913968
        0.977421194944008         1.14569167985676
        0.980231648060686           1.154676055407
        0.983042101177364         1.16368894171016
        0.985852554294042         1.17273061296872
         0.98866300741072         1.18180134229288
        0.991473460527398         1.19090140096308
        0.994283913644077         1.20003105920254
        0.997094366760755         1.20919058583323
        0.999904819877433          1.2183802483997
         1.00271527299411         1.22760031363823
         1.00552572611079         1.23685104673392
         1.00833617922747         1.24613271215993
         1.01114663234415         1.25544557338302
         1.01395708546082         1.26478989286585
          1.0167675385775         1.27416593229654
         1.01957799169418         1.28357395250129
         1.02238844481086         1.29301421356342
         1.02519889792754         1.30248697482494
         1.02800935104421         1.31199249496678
         1.03081980416089         1.32153103204999
         1.03363025727757         1.33110284347756
         1.03644071039425         1.34070818615225
         1.03925116351093         1.35034731641836
          1.0420616166276         1.36002049015033
         1.04487206974428         1.36972796274968
         1.04768252286096         1.37946998918959
         1.05049297597764         1.38924682410557
         1.05330342909432         1.39905872169473
         1.05611388221099         1.40890593588079
         1.05892433532767         1.41878872012026
         1.06173478844435         1.42870732791603
         1.06454524156103         1.43866201208044
         1.06735569467771         1.44865302549614
         1.07016614779438         1.45868062075878
         1.07297660091106         1.46874505025888
         1.07578705402774          1.4788465662071
         1.07859750714442         1.48898542059392
          1.0814079602611         1.49916186533201
         1.08421841337778         1.50937615224686
         1.08702886649445          1.5196285329776
         1.08983931961113         1.52991925913813
         1.09264977272781          1.5402485822216
         1.09546022584449         1.55061675368736
         1.09827067896117          1.5610240249307
         1.10108113207784         1.57147064730564
         1.10389158519452         1.58195687214474
          1.1067020383112         1.59248295077557
         1.10951249142788         1.60304913450066
         1.11232294454456         1.61365567461087
         1.11513339766123          1.6243028224559
         1.11794385077791         1.63499082933479
         1.12075430389459         1.64571994663013
         1.12356475701127         1.65649042572139
         1.12637521012795         1.66730251805122
         1.12918566324462         1.67815647507563
          1.1319961163613         1.68905254829456
         1.13480656947798         1.69999098927835
         1.13761702259466         1.71097204962879
         1.14042747571134         1.72199598100583
         1.14323792882802         1.73306303512086
         1.14604838194469         1.74417346371253
         1.14885883506137         1.75532751860879
         1.15166928817805         1.76652545164948
         1.15447974129473          1.7777675147507
         1.15729019441141         1.78905395986977
         1.16010064752808         1.80038503879252
         1.16291110064476         1.81176100377006
         1.16572155376144         1.82318210652272
         1.16853200687812         1.83464859914137
          1.1713424599948         1.84616073350163
         1.17415291311147         1.85771876139517
         1.17696336622815         1.86932293446303
         1.17977381934483         1.88097350409269
         1.18258427246151         1.89267072132823
         1.18539472557819         1.90441483657704
         1.18820517869486         1.91620609925663
         1.19101563181154         1.92804475712008
         1.19382608492822         1.93993105480071
          1.1966365380449         1.95186523045916
         1.19944699116158         1.96384750614087
         1.20225744427825         1.97587804676639
         1.20506789739493         1.98795497644633
