            sqrt(s) [GeV]               sigma [mb]
        0.401982478309435       0.0687964643490551
        0.406023316488063       0.0709185635604382
        0.410064154666691       0.0760069348938873
         0.41410499284532       0.0818594113758666
        0.418145831023948       0.0882015781102709
        0.422186669202576       0.0948899292602861
        0.426227507381204         0.10182941328449
        0.430268345559833        0.108951501298631
        0.434309183738461        0.116205405717581
        0.438350021917089        0.123553745005844
        0.442390860095717        0.130970102690308
        0.446431698274346        0.138437677105651
        0.450472536452974        0.145948659704401
        0.454513374631602        0.153504268480291
         0.45855421281023         0.16111541259646
        0.462595050988859        0.168804337868069
        0.466635889167487        0.176607703519949
        0.470676727346115        0.184582692726695
        0.474717565524743        0.192821361239414
        0.478758403703372        0.201507659483459
           0.482799241882        0.211056211538267
        0.486840080060628        0.221172437756233
        0.490880918239256        0.231641309549827
        0.494921756417885        0.242354927425092
        0.498962594596513        0.253242773655183
        0.503003432775141        0.264254308099094
        0.507044270953769        0.275351978813823
        0.511085109132398        0.286506437549238
        0.515125947311026        0.297694732918002
        0.519166785489654        0.308902209665385
        0.523207623668282        0.320103662810897
        0.527248461846911        0.331296035517273
        0.531289300025539        0.342469760792856
        0.535330138204167        0.353614357156333
        0.539370976382795         0.36472263376249
        0.543411814561424        0.375791467102652
        0.547452652740052        0.386815485616514
         0.55149349091868        0.397791812661315
        0.555534329097308        0.408717970132868
        0.559575167275937        0.419592166603357
        0.563616005454565        0.430412795770861
        0.567656843633193         0.44117897707494
        0.571697681811822        0.451890610029658
         0.57573851999045        0.462546723181287
        0.579779358169078        0.473148298023872
        0.583820196347706        0.483695314649006
        0.587861034526335        0.494187942137959
        0.591901872704963        0.504627912506942
        0.595942710883591        0.515014881198568
        0.599983549062219        0.525350943639213
        0.604024387240848        0.535636801465918
        0.608065225419476        0.545872961045004
        0.612106063598104        0.556062150883535
        0.616146901776732        0.566204129204795
        0.620187739955361        0.576300598139158
        0.624228578133989        0.586354059758522
        0.628269416312617        0.596363950184091
        0.632310254491245        0.606333383408539
        0.636351092669874         0.61626314321221
        0.640391930848502        0.626150583022222
         0.64443276902713          0.6360018196235
        0.648473607205758        0.645815169725736
        0.652514445384387        0.655591257267411
        0.656555283563015         0.66532986121131
        0.660596121741643        0.675030422358047
        0.664636959920271        0.684691095557651
          0.6686777980989        0.694304636470046
        0.672718636277528         0.70385019664982
        0.676759474456156        0.713348374873367
        0.680800312634784        0.722821541473524
        0.684841150813413         0.73228510112035
        0.688881988992041        0.741745508527857
        0.692922827170669        0.751207417154139
        0.696963665349297        0.760677765985644
        0.701004503527926        0.770160163207683
        0.705045341706554        0.779656874700964
        0.709086179885182        0.789171161190043
        0.713127018063811        0.798706167976733
        0.717167856242439        0.808262771233281
        0.721208694421067        0.817843223864593
        0.725249532599695        0.827444735336406
        0.729290370778323        0.837081616952407
        0.733331208956952        0.846740387306523
         0.73737204713558        0.856432481015136
        0.741412885314208        0.866158749409041
        0.745453723492836        0.875905442177156
        0.749494561671465        0.885691623209553
        0.753535399850093        0.895502849586258
        0.757576238028721        0.905353075536284
         0.76161707620735        0.915244282326292
        0.765657914385978        0.925159608137479
        0.769698752564606        0.935115059657266
        0.773739590743234        0.945111199476954
        0.777780428921862        0.955148706370101
        0.781821267100491        0.965208872362468
        0.785862105279119        0.975321887780648
        0.789902943457747         0.98546194803378
        0.793943781636375        0.995651261401056
        0.797984619815004          1.0058792538961
        0.802025457993632         1.01615093865802
         0.80606629617226         1.02646260526553
        0.810107134350889         1.03681575753737
        0.814147972529517         1.04721854197245
        0.818188810708145         1.05766038015965
        0.822229648886773         1.06814785782101
        0.826270487065402         1.07868494732146
         0.83031132524403         1.08926456666691
        0.834352163422658          1.0998892227259
        0.838393001601286         1.11056105935916
        0.842433839779915         1.12128180110904
        0.846474677958543         1.13205030140427
        0.850515516137171         1.14287461786271
        0.854556354315799         1.15374501990465
        0.858597192494428         1.16467031511731
        0.862638030673056         1.17564084020243
        0.866678868851684         1.18666429023184
        0.870719707030312         1.19774025302742
        0.874760545208941         1.20886987484553
        0.878801383387569         1.22005453688023
        0.882842221566197         1.23130140939524
        0.886883059744825         1.24259373250318
        0.890923897923454         1.25391251564213
        0.894964736102082         1.26534780998435
         0.89900557428071         1.27682374895358
        0.903046412459338         1.28831911962224
        0.907087250637967         1.29995443669035
        0.911128088816595         1.31160034202869
        0.915168926995223         1.32330974145369
        0.919209765173851         1.33503811612434
         0.92325060335248         1.34688461191376
        0.927291441531108          1.3587807031042
        0.931332279709736         1.37073290745188
        0.935373117888364         1.38276668569951
        0.939413956066993          1.3948406311467
        0.943454794245621          1.4069915636492
        0.947495632424249         1.41920917417165
        0.951536470602877          1.4315015373342
        0.955577308781506         1.44384925627123
        0.959618146960134         1.45628025518087
        0.963658985138762         1.46877352878735
         0.96769982331739         1.48134329432253
        0.971740661496019         1.49397576867364
        0.975781499674647         1.50668549997175
        0.979822337853275         1.51945592529572
        0.983863176031904         1.53232623904992
        0.987904014210532         1.54525778637871
         0.99194485238916         1.55827273846722
        0.995985690567788         1.57135926368771
         1.00002652874642         1.58454603907424
         1.00406736692504         1.59777091054515
         1.00810820510367         1.61108391887685
          1.0121490432823         1.62448856076058
         1.01618988146093         1.63797627261675
         1.02023071963956         1.65154868807479
         1.02427155781819         1.66520939669939
         1.02831239599681         1.67896219429336
         1.03235323417544         1.69280061671577
         1.03639407235407         1.70673092260184
          1.0404349105327         1.72075093797206
         1.04447574871133         1.73484176017374
         1.04851658688996         1.74902971468766
         1.05255742506858         1.76330258861367
         1.05659826324721         1.77765967816513
         1.06063910142584         1.79210617349787
         1.06467993960447         1.80663676653545
          1.0687207777831         1.82126214127211
         1.07276161596173         1.83597619993489
         1.07680245414035         1.85077298621083
         1.08084329231898         1.86565755270515
         1.08488413049761         1.88064021536032
         1.08892496867624         1.89570616356343
         1.09296580685487         1.91086933017276
         1.09700664503349         1.92612222379739
         1.10104748321212         1.94146619014053
         1.10508832139075         1.95689860075772
         1.10912915956938         1.97242501218515
         1.11316999774801         1.98804454795612
         1.11721083592664         2.00376399359265
         1.12125167410526         2.01957126521824
         1.12529251228389         2.03548408287192
         1.12933335046252         2.05148169992129
         1.13337418864115         2.06755084010514
         1.13741502681978         2.08376012546577
         1.14145586499841         2.10004509844613
         1.14549670317703         2.11643036712686
         1.14953754135566         2.13292354221669
         1.15357837953429         2.14949751568243
         1.15761921771292         2.16618869930801
         1.16166005589155         2.18297060637369
         1.16570089407017          2.1998452119536
          1.1697417322488         2.21682831691558
         1.17378257042743         2.23391315538185
         1.17782340860606         2.25110751851116
         1.18186424678469         2.26838805965425
         1.18590508496332         2.28577708701941
         1.18994592314194         2.30324867768235
         1.19398676132057         2.32088294759533
          1.1980275994992         2.33859017531412
         1.20206843767783         2.35640718692059
         1.20610927585646         2.37431419875574
