            sqrt(s) [GeV]               sigma [mb]
       0.0203158350223226      0.00225981078445399
       0.0262678725302872      0.00278363321940211
       0.0322199100382519      0.00409616179971502
       0.0381719475462165      0.00592199782208663
       0.0441239850541811      0.00815957185117076
       0.0500760225621458       0.0107605193172261
       0.0560280600701104       0.0136976141374202
        0.061980097578075        0.016953254883835
       0.0679321350860397       0.0205147033685707
       0.0738841725940043       0.0243718989791412
       0.0798362101019689       0.0285163698741348
       0.0857882476099335       0.0329406532521634
       0.0917402851178982       0.0376379689166097
       0.0976923226258628       0.0426020264141976
        0.103644360133827       0.0478269060445851
        0.109596397641792         0.05330698255971
        0.115548435149757       0.0590368720432314
        0.121500472657721       0.0650114086794046
        0.127452510165686       0.0712255963160901
        0.133404547673651       0.0776746135979469
        0.139356585181615       0.0843537882359153
         0.14530862268958       0.0912585883853685
        0.151260660197544        0.098384613776244
        0.157212697705509        0.105727588343407
        0.163164735213474        0.113283353953868
        0.169116772721438        0.121047864947834
        0.175068810229403         0.12901718331271
        0.181020847737368        0.137187474317457
        0.186972885245332        0.145555002013514
        0.192924922753297        0.154116127036306
        0.198876960261262        0.162867301722951
        0.204828997769226        0.171805067091719
        0.210781035277191        0.180926050016887
        0.216733072785155         0.19022696013312
         0.22268511029312         0.19970458992494
        0.228637147801085        0.209355805661271
        0.234589185309049         0.21917755083232
        0.240541222817014        0.229166841484382
        0.246493260324979         0.23932076479366
        0.252445297832943        0.249636474196178
        0.258397335340908        0.260111192997369
        0.264349372848873        0.270742204441027
        0.270301410356837        0.281526855557125
        0.276253447864802        0.292462554969618
        0.282205485372766        0.303546769023438
        0.288157522880731        0.314777021126282
        0.294109560388696        0.326150887762331
         0.30006159789666        0.337666001523579
        0.306013635404625        0.349320045595939
         0.31196567291259         0.36111075518516
        0.317917710420554        0.373035912519056
        0.323869747928519        0.385093349689524
        0.329821785436483        0.397280944011925
        0.335773822944448        0.409596618909609
        0.341725860452413        0.422038342431061
        0.347677897960377        0.434604124643027
        0.353629935468342        0.447292017475434
        0.359581972976307        0.460100116030723
        0.365534010484271        0.473026553181439
        0.371486047992236         0.48606950276048
        0.377438085500201        0.499227173852758
        0.383390123008165        0.512497818638181
         0.38934216051613        0.525879721439571
        0.395294198024094        0.539371204637795
        0.401246235532059        0.552970626465469
        0.407198273040024        0.566676377401159
        0.413150310547988        0.580486885935238
        0.419102348055953        0.594400614868747
        0.425054385563918        0.608416054229725
        0.431006423071882        0.622531733235671
        0.436958460579847        0.636746210413541
        0.442910498087812        0.651058077395185
        0.448862535595776        0.665465958794906
        0.454814573103741        0.679968508504982
        0.460766610611705        0.694564413299735
         0.46671864811967        0.709252389001932
        0.472670685627635         0.72403118434894
        0.478622723135599        0.738899578502487
        0.484574760643564        0.753856379267877
        0.490526798151529        0.768900385045469
        0.496478835659493        0.784030591545216
        0.502430873167458        0.799245771741247
        0.508382910675423        0.814544898808368
        0.514334948183387        0.829926934302601
        0.520286985691352        0.845390867956403
        0.526239023199316        0.860935720538046
        0.532191060707281        0.876560543436326
        0.538143098215246        0.892264418842038
         0.54409513572321        0.908046458740194
        0.550047173231175        0.923905806516244
        0.555999210739139        0.939841635748137
        0.561951248247104        0.955853151081135
        0.567903285755069        0.971939589131051
        0.573855323263033        0.988100216126279
        0.579807360770998         1.00433433127342
        0.585759398278963         1.02064126482251
        0.591711435786927         1.03702037919723
        0.597663473294892         1.05347106875519
        0.603615510802857         1.06999276051201
        0.609567548310821         1.08658491379061
        0.615519585818786         1.10324702127412
         0.62147162332675          1.1199786089259
        0.627423660834715         1.13677923571444
         0.63337569834268         1.15364849517968
        0.639327735850644         1.17058601387576
        0.645279773358609         1.18759145378255
        0.651231810866574         1.20466450975996
        0.657183848374538         1.22180491445486
        0.663135885882503         1.23901243345742
        0.669087923390468         1.25628686904394
        0.675039960898432         1.27362805949381
        0.680991998406397         1.29103587794152
        0.686944035914361         1.30851023596996
        0.692896073422326         1.32605108081062
        0.698848110930291         1.34365839720982
        0.704800148438255         1.36133220735602
         0.71075218594622         1.37907257103282
        0.716704223454185         1.39687958700551
        0.722656260962149         1.41475339179433
        0.728608298470114         1.43269415987032
        0.734560335978078         1.45070210635042
        0.740512373486043         1.46877748471308
        0.746464410994008         1.48692058833652
        0.752416448501972          1.5051317506391
        0.758368486009937         1.52341134449457
        0.764320523517902         1.54175978460234
        0.770272561025866          1.5601775255712
        0.776224598533831         1.57866506322064
        0.782176636041796          1.5972229347525
         0.78812867354976         1.61585171897582
        0.794080711057725         1.63455203669727
        0.800032748565689         1.65332455034486
        0.805984786073654         1.67216996533972
        0.811936823581619         1.69108902927118
        0.817888861089583         1.71008253286919
        0.823840898597548          1.7291513096724
        0.829792936105513         1.74829623644144
        0.835744973613477          1.7675182339084
        0.841697011121442         1.78681826588899
        0.847649048629406         1.80619734070095
        0.853601086137371         1.82565650972211
        0.859553123645336         1.84519687004533
          0.8655051611533         1.86481956224093
        0.871457198661265         1.88452577184528
         0.87740923616923         1.90431672906909
        0.883361273677194         1.92419370919743
        0.889313311185159         1.94415803252092
        0.895265348693124         1.96421106477116
        0.901217386201088         1.98435421688807
        0.907169423709053         2.00458894542816
        0.913121461217017           2.024916752547
        0.919073498724982          2.0453391862619
        0.925025536232947         2.06585784049421
        0.930977573740911         2.08647435496395
        0.936929611248876         2.10719041577709
        0.942881648756841         2.12800775509296
        0.948833686264805         2.14892815131596
         0.95478572377277         2.16995342935831
        0.960737761280735         2.19108546040296
        0.966689798788699         2.21232616236288
        0.972641836296664         2.23367749956058
        0.978593873804628         2.25514148319671
        0.984545911312593         2.27672017070063
        0.990497948820558         2.29841566692949
        0.996449986328522         2.32023012318621
         1.00240202383649         2.34216573758765
         1.00835406134445         2.36422475547112
         1.01430609885242         2.38640946886348
         1.02025813636038         2.40872221664779
         1.02621017386835         2.43116538504568
         1.03216221137631         2.45374140709441
         1.03811424888427         2.47645276297492
         1.04406628639224          2.4993019799347
          1.0500183239002         2.52229163227183
         1.05597036140817         2.54542434142883
         1.06192239891613         2.56870277600213
          1.0678744364241         2.59212965164143
         1.07382647393206         2.61570773112126
         1.07977851144003         2.63943982458578
         1.08573054894799         2.66332878900605
         1.09168258645596         2.68737752866266
         1.09763462396392         2.71158899508832
         1.10358666147189         2.73596618672821
         1.10953869897985         2.76051214935477
         1.11549073648782         2.78522997582055
         1.12144277399578         2.81012280606585
         1.12739481150374         2.83519382720299
         1.13334684901171         2.86044627341267
         1.13929888651967         2.88588342606733
         1.14525092402764          2.9115086135726
          1.1512029615356         2.93732521142553
         1.15715499904357         2.96333664219248
         1.16310703655153         2.98954637549404
          1.1690590740595         3.01595792797104
         1.17501111156746         3.04257486331751
         1.18096314907543         3.06940079220228
         1.18691518658339         3.09643937231444
         1.19286722409136         3.12369430827625
         1.19881926159932         3.15116935165103
         1.20477129910728         3.17886830095182
