            sqrt(s) [GeV]               sigma [mb]
        0.401982478309435        0.123367729406023
        0.406023316488063        0.126933522408119
        0.410064154666691        0.135880604781985
         0.41410499284532        0.146159952579154
        0.418145831023948        0.157283342048273
        0.422186669202576        0.168999954799459
        0.426227507381204        0.181145176772808
        0.430268345559833        0.193600719527536
        0.434309183738461        0.206278736502127
        0.438350021917089        0.219113932835167
        0.442390860095717        0.232058976713651
        0.446431698274346        0.245081715410166
        0.450472536452974        0.258163482588792
        0.454513374631602        0.271298260732652
         0.45855421281023        0.284492524427053
        0.462595050988859        0.297766054057295
        0.466635889167487        0.311153982088368
        0.470676727346115        0.324711477399466
        0.474717565524743        0.338525736151547
        0.478758403703372        0.352767332775604
           0.482799241882        0.367789017375628
        0.486840080060628        0.383246189219514
        0.490880918239256        0.398913738828157
        0.494921756417885        0.414678276246059
        0.498962594596513        0.430466421364516
        0.503003432775141        0.446226535828456
        0.507044270953769        0.461921651641411
        0.511085109132398        0.477523277261931
        0.515125947311026        0.493010412254312
        0.519166785489654        0.508370853409511
        0.523207623668282        0.523581813084585
        0.527248461846911        0.538644477779093
        0.531289300025539        0.553549441134875
        0.535330138204167        0.568292518377317
        0.539370976382795        0.582868877801327
        0.543411814561424        0.597278806794674
        0.547452652740052        0.611520577819781
         0.55149349091868        0.625594676222645
        0.555534329097308        0.639501926666861
        0.559575167275937        0.653247120280771
        0.563616005454565        0.666820144179439
        0.567656843633193        0.680242396326544
        0.571697681811822        0.693503124037298
         0.57573851999045        0.706608444577314
        0.579779358169078        0.719562222255236
        0.583820196347706        0.732367528077515
        0.587861034526335        0.745027364135093
        0.591901872704963        0.757546196199659
        0.595942710883591        0.769926567141206
        0.599983549062219        0.782173235113084
        0.604024387240848        0.794284825989613
        0.608065225419476        0.806275243347413
        0.612106063598104        0.818137945590901
        0.616146901776732        0.829882281847524
        0.620187739955361        0.841507596752499
        0.624228578133989        0.853019380572212
        0.628269416312617        0.864418988464551
        0.632310254491245         0.87571072675903
        0.636351092669874         0.88689713894703
        0.640391930848502        0.897975666195428
         0.64443276902713        0.908953822019147
        0.648473607205758        0.919830103672243
        0.652514445384387         0.93060501308747
        0.656555283563015        0.941277593730913
        0.660596121741643        0.951844885839344
        0.664636959920271        0.962300186175215
          0.6686777980989        0.972626801182676
        0.672718636277528        0.982774228770777
        0.676759474456156        0.992806394767249
        0.680800312634784         1.00274503432596
        0.684841150813413         1.01265803892639
        0.688881988992041         1.02254548528739
        0.692922827170669         1.03242452662328
        0.696963665349297         1.04229854800057
        0.701004503527926         1.05221503108702
        0.705045341706554         1.06208881633588
        0.709086179885182         1.07200609834952
        0.713127018063811         1.08194655956789
        0.717167856242439         1.09191916494951
        0.721208694421067         1.10190418928637
        0.725249532599695         1.11192206917594
        0.729290370778323         1.12197759344593
        0.733331208956952         1.13206111237891
         0.73737204713558         1.14220289003748
        0.741412885314208         1.15233218549532
        0.745453723492836         1.16251865653103
        0.749494561671465         1.17274281588209
        0.753535399850093          1.1830029543784
        0.757576238028721         1.19329891431159
         0.76161707620735         1.20363386554066
        0.765657914385978         1.21400332803822
        0.769698752564606         1.22441138680584
        0.773739590743234         1.23486083530164
        0.777780428921862         1.24535179610695
        0.781821267100491         1.25589212996622
        0.785862105279119          1.2664405279386
        0.789902943457747         1.27703020510026
        0.793943781636375         1.28767318950387
        0.797984619815004          1.2983541999121
        0.802025457993632         1.30907639444575
         0.80606629617226         1.31983436646949
        0.810107134350889         1.33064069677264
        0.814147972529517         1.34149005400854
        0.818188810708145         1.35237473279779
        0.822229648886773         1.36330497741383
        0.826270487065402         1.37427929369734
         0.83031132524403         1.38529689240451
        0.834352163422658          1.3963522727191
        0.838393001601286         1.40745388515251
        0.842433839779915         1.41860022848608
        0.846474677958543          1.4297920831563
        0.850515516137171         1.44103139213965
        0.854556354315799         1.45232013032395
        0.858597192494428         1.46359450538232
        0.862638030673056          1.4750260899264
        0.866678868851684         1.48645057084292
        0.870719707030312         1.49792446051199
        0.874760545208941         1.50944760895695
        0.878801383387569         1.52102157032619
        0.882842221566197         1.53264830971572
        0.886883059744825         1.54434736973622
        0.890923897923454         1.55603714936763
        0.894964736102082          1.5678258956477
         0.89900557428071         1.57966272719775
        0.903046412459338         1.59155038224825
        0.907087250637967         1.60350223578965
        0.911128088816595         1.61550531541666
        0.915168926995223         1.62755258044446
        0.919209765173851          1.6396500587986
         0.92325060335248         1.65182504546796
        0.927291441531108         1.66405890651937
        0.931332279709736         1.67633745853623
        0.935373117888364         1.68868219931048
        0.939413956066993         1.70109032821817
        0.943454794245621          1.7135594061438
        0.947495632424249         1.72610374362611
        0.951536470602877         1.73870452956195
        0.955577308781506         1.75134765768731
        0.959618146960134           1.764081954687
        0.963658985138762         1.77687757057454
         0.96769982331739         1.78974126605061
        0.971740661496019         1.80267456735059
        0.975781499674647         1.81567042111599
        0.979822337853275         1.82874466955835
        0.983863176031904         1.84188998239695
        0.987904014210532         1.85510847838393
         0.99194485238916         1.86840228724445
        0.995985690567788          1.8817694868692
         1.00002652874642         1.89520995130807
         1.00406736692504         1.90868418936986
         1.00810820510367         1.92233615498553
          1.0121490432823         1.93602134648127
         1.01618988146093         1.94979171697407
         1.02023071963956         1.96364944132615
         1.02427155781819         1.97760126918198
         1.02831239599681         1.99165386900283
         1.03235323417544         2.00579688913836
         1.03639407235407         2.02003366572057
          1.0404349105327         2.03435151985534
         1.04447574871133         2.04876227975438
         1.04851658688996         2.06326037407305
         1.05255742506858         2.07784498124873
         1.05659826324721         2.09250904713714
         1.06063910142584         2.10725943256826
         1.06467993960447         2.12208841289658
          1.0687207777831         2.13701705472386
         1.07276161596173         2.15202464646956
         1.07680245414035         2.16711761300466
         1.08084329231898         2.18229762987845
         1.08488413049761         2.19755831553965
         1.08892496867624         2.21291078472866
         1.09296580685487         2.22834761902528
         1.09700664503349         2.24387064602883
         1.10104748321212         2.25947706389822
         1.10508832139075         2.27518350235315
         1.10912915956938         2.29097036947783
         1.11316999774801         2.30684289446241
         1.11721083592664         2.32283970940949
         1.12125167410526          2.3388645795316
         1.12529251228389          2.3550063534572
         1.12933335046252          2.3712277491895
         1.13337418864115         2.38755524391065
         1.13741502681978         2.40397136501703
         1.14145586499841         2.42046764701242
         1.14549670317703         2.43703052342613
         1.14953754135566         2.45375431256396
         1.15357837953429         2.47053317604926
         1.15761921771292         2.48741118286347
         1.16166005589155         2.50437313486484
         1.16570089407017         2.52143579297677
          1.1697417322488         2.53858994696382
         1.17378257042743         2.55583871265322
         1.17782340860606         2.57318450557843
         1.18186424678469         2.59062552202723
         1.18590508496332          2.6081538822902
         1.18994592314194         2.62580081678907
         1.19398676132057          2.6435253251942
          1.1980275994992         2.66135685727504
         1.20206843767783         2.67928023412357
         1.20610927585646         2.69731292246348
