            sqrt(s) [GeV]               sigma [mb]
       0.0603194438582137        0.171046556511337
       0.0660771817074511        0.202370341827916
       0.0718349195566885        0.242076472843008
       0.0775926574059259        0.288073477966325
       0.0833503952551633        0.340597630136263
       0.0891081331044007        0.400127758673726
       0.0948658709536381        0.467291750365195
        0.100623608802876        0.542849558275525
        0.106381346652113        0.627695543782168
         0.11213908450135        0.722870276577811
        0.117896822350588        0.829578126965491
        0.123654560199825        0.949210138706952
        0.129412298049063         1.08337218000448
          0.1351700358983         1.23391882578239
        0.140927773747537         1.40299367442816
        0.146685511596775         1.59307697196134
        0.152443249446012         1.80704152278214
         0.15820098729525         2.04821789051647
        0.163958725144487          2.3204697834169
        0.169716462993724         2.62828018809418
        0.175474200842962         2.97684811409023
        0.181231938692199         3.37219450717904
        0.186989676541437         3.82127362215729
        0.192747414390674         4.33208237867691
        0.198505152239911         4.91375417304115
        0.204262890089149         5.57661420163725
        0.210020627938386         6.33215916521875
        0.215778365787624         7.19290368477324
        0.221536103636861         8.17200758869154
        0.227293841486098         9.28256265100348
        0.233051579335336         10.5363786208563
        0.238809317184573         11.9420792445208
        0.244567055033811         13.5023273433911
        0.250324792883048         15.2100935792765
        0.256082530732285         17.0441368378766
        0.261840268581523         18.9643410411715
         0.26759800643076         20.9082420347903
        0.273355744279998         22.7907672304962
        0.279113482129235         24.5093926647925
        0.284871219978473          25.955925426638
         0.29062895782771         27.0336541156628
        0.296386695676947         27.6755014387782
        0.302144433526185         27.8570408050057
        0.307902171375422         27.5995631766335
         0.31365990922466         26.9624812520418
        0.319417647073897         26.0286923662851
        0.325175384923134         24.8884695119371
        0.330933122772372         23.6264486576247
        0.336690860621609         22.3137545986807
        0.342448598470847         21.0050208457703
        0.348206336320084         19.7388739147445
        0.353964074169321         18.5402824967615
        0.359721812018559         17.4235401295632
        0.365479549867796          16.395139539671
        0.371237287717034         15.4561945851058
        0.376995025566271         14.6043182808871
        0.382752763415508         13.8349959452436
        0.388510501264746         13.1425437380674
        0.394268239113983         12.5207507702457
        0.400025976963221         11.9632916249728
        0.405783714812458         11.4639785608642
        0.411541452661695         11.0169054476701
        0.417299190510933         10.6165211113254
         0.42305692836017         10.2576582691805
        0.428814666209408         9.93553625574813
        0.434572404058645         9.64574938165633
        0.440330141907882          9.3842488188115
         0.44608787975712         9.14732271213143
        0.451845617606357         8.93157742278206
        0.457603355455595         8.73392106153838
        0.463361093304832          8.5515498035451
        0.469118831154069         8.38193662831615
        0.474876569003307         8.22282184392568
        0.480634306852544         8.07220455125031
        0.486392044701782         7.92833410960543
        0.492149782551019         7.78970086484634
        0.497907520400257         7.65502544487879
        0.503665258249494         7.52324624590024
        0.509422996098731          7.3935049690576
        0.515180733947969         7.26513020329365
        0.520938471797206         7.13761949207799
        0.526696209646444          7.0106201593365
        0.532453947495681         6.88390955878138
        0.538211685344918         6.75737525090881
        0.543969423194156         6.63099569151291
        0.549727161043393         6.50482191047616
        0.555484898892631         6.37896059159855
        0.561242636741868         6.25355882356608
        0.567000374591105         6.12879073161871
        0.572758112440343         6.00484604119297
         0.57851585028958         5.88192055980747
        0.584273588138818         5.76020850906745
        0.590031325988055         5.63989654022964
        0.595789063837292         5.52115927153758
         0.60154680168653         5.40415614786408
        0.607304539535767         5.28902942148836
        0.613062277385005         5.17590305995238
        0.618820015234242         5.06488239864983
         0.62457775308348         4.95605437373026
        0.630335490932717         4.84948819108195
        0.636093228781954         4.74523630969346
        0.641850966631192         4.64333563163387
        0.647608704480429         4.54380882394427
        0.653366442329667         4.44666569680786
        0.659124180178904         4.35190459265058
        0.664881918028141         4.25951374546388
        0.670639655877379         4.16947258317933
        0.676397393726616         4.08175295387387
        0.682155131575854         3.99632026445643
        0.687912869425091         3.91313452476782
        0.693670607274328         3.83215129536041
        0.699428345123566         3.75332253963295
        0.705186082972803          3.6765973835511
        0.710943820822041         3.60192278762789
        0.716701558671278         3.52924413691846
        0.722459296520515         3.45850575493379
        0.728217034369753         3.38965134880576
         0.73397477221899         3.32262439085025
        0.739732510068228         3.25736844409633
        0.745490247917465         3.19382743705314
        0.751247985766702         3.13194589357899
         0.75700572361594         3.07166912307622
        0.762763461465177         3.01294337580533
        0.768521199314415         2.95571596766327
        0.774278937163652         2.89993537841718
         0.78003667501289         2.84555132681607
        0.785794412862127         2.79251482606396
        0.791552150711364         2.74077822192709
        0.797309888560602         2.69029521647851
        0.803067626409839         2.64102087937186
        0.808825364259076         2.59291164863966
        0.814583102108314         2.54592532266681
        0.820340839957551         2.50002104515721
        0.826098577806789         2.45515928207875
        0.831856315656026         2.41130179837664
        0.837614053505264         2.36841162447637
        0.843371791354501         2.32645302319139
        0.849129529203738         2.28539145470013
        0.854887267052976         2.24519353658498
        0.860645004902213         2.20582700470294
        0.866402742751451         2.16726067205672
        0.872160480600688         2.12946438712938
        0.877918218449925         2.09240899138822
        0.883675956299163         2.05606627700489
          0.8894336941484         2.02040894403794
        0.895191431997638         1.98541055790705
        0.900949169846875         1.95104550680557
        0.906706907696112         1.91728895936741
         0.91246464554535         1.88411682246692
        0.918222383394587         1.85150569925912
        0.923980121243825         1.81943284730575
        0.929737859093062         1.78787613682467
        0.935495596942299         1.75681400886367
        0.941253334791537         1.72622543349055
        0.947011072640774          1.6960898677786
        0.952768810490012         1.66638721302873
        0.958526548339249          1.6370977719226
        0.964284286188486          1.6082022043813
        0.970042024037724         1.57968148260666
        0.975799761886961         1.55151684461325
        0.981557499736199         1.52368974598616
        0.987315237585436         1.49618180986789
        0.993072975434674         1.46897477200513
        0.998830713283911         1.44205042816816
         1.00458845113315         1.41539057012157
         1.01034618898239         1.38897692273259
         1.01610392683162         1.36279107201103
         1.02186166468086         1.33681438938016
          1.0276194025301         1.31102794427612
         1.03337714037934         1.28541240942203
         1.03913487822857         1.25994795327384
         1.04489261607781         1.23461411818703
         1.05065035392705         1.20938968118713
         1.05640809177628         1.18425249329014
         1.06216582962552         1.15917929301981
         1.06792356747476         1.13414548732721
           1.073681305324         1.10912489268984
         1.07943904317323         1.08408942600071
         1.08519678102247         1.05900873210806
         1.09095451887171         1.03384973064529
         1.09671225672095         1.00857605873638
         1.10246999457018        0.983147378354927
         1.10822773241942        0.957518504476756
         1.11398547026866        0.931638293705338
          1.1197432081179        0.905448206854352
         1.12550094596713        0.878880419870575
         1.13125868381637        0.851855296468119
         1.13701642166561         0.82427793791548
         1.14277415951485        0.796033362432572
         1.14853189736408        0.766979587881498
         1.15428963521332        0.736937389061413
         1.16004737306256        0.705674553803981
          1.1658051109118        0.672880560227356
         1.17156284876103        0.638123486723299
         1.17732058661027        0.600771209551681
         1.18307832445951        0.559832785714162
         1.18883606230875        0.513593031512981
         1.19459380015798        0.458576167416474
         1.20035153800722         0.38524050510695
         1.20610927585646         0.10058064453231
