            sqrt(s) [GeV]               sigma [mb]
       0.0603194438560728       0.0310020798397432
       0.0660771817053202       0.0269329170867761
       0.0718349195545675       0.0266049169238961
       0.0775926574038149        0.027522370083404
       0.0833503952530623       0.0292661850753831
       0.0891081331023097       0.0316156960863223
        0.094865870951557         0.03443322321004
        0.100623608800804       0.0376259035563227
        0.106381346650052       0.0411280165086142
        0.112139084499299       0.0448914115602034
        0.117896822348547       0.0488798385646307
        0.123654560197794       0.0530654084144719
        0.129412298047041        0.057426213595493
        0.135170035896289       0.0619447776358325
        0.140927773745536       0.0666069466975039
        0.146685511594783       0.0714011072827587
        0.152443249444031       0.0763176189755907
        0.158200987293278       0.0813483960000538
        0.163958725142526       0.0864865937436087
        0.169716462991773       0.0917263705659237
         0.17547420084102       0.0970627045362241
        0.181231938690268        0.102491250684071
        0.186989676539515        0.108008211245638
        0.192747414388763        0.113610313701997
         0.19850515223801        0.119294640392076
        0.204262890087257        0.125058634210359
        0.210020627936505        0.130900035407395
        0.215778365785752        0.136816842365569
        0.221536103634999        0.142807279003165
        0.227293841484247        0.148869767503085
        0.233051579333494        0.155002905359053
        0.238809317182742         0.16120544592297
        0.244567055031989        0.167476281815691
        0.250324792881236        0.173814430712867
        0.256082530730484        0.180219023063866
        0.261840268579731        0.186689291408048
        0.267598006428978        0.193224561936122
        0.273355744278226        0.199824244227313
        0.279113482127473         0.20648782727581
        0.284871219976721         0.21321486983082
        0.290628957825968        0.220004998735005
        0.296386695675215        0.226857901207204
        0.302144433524463        0.233773319969626
         0.30790217137371        0.240751051510321
        0.313659909222957        0.247790942291118
        0.319417647072205        0.254892884257046
        0.325175384921452        0.262056813287515
          0.3309331227707         0.26928270477568
        0.336690860619947        0.276570573949278
        0.342448598469194        0.283920475201554
        0.348206336318442        0.291332490171726
        0.353964074167689        0.298806740740178
        0.359721812016936         0.30634337524309
        0.365479549866184        0.313942582606124
        0.371237287715431        0.321604544503397
        0.376995025564679        0.329329527975102
        0.382752763413926        0.337117792014837
        0.388510501263173        0.344969601667134
        0.394268239112421        0.352885290806502
        0.400025976961668        0.360865194122735
        0.405783714810915         0.36890965617843
        0.411541452660163        0.377019074306507
         0.41729919050941        0.385193836116796
        0.423056928358658        0.393434380548163
        0.428814666207905        0.401741130116237
        0.434572404057152        0.410114565241329
          0.4403301419064        0.418555163069501
        0.446087879755647        0.427063423885072
        0.451845617604895        0.435639873215703
        0.457603355454142        0.444285035928961
        0.463361093303389        0.452999476395052
        0.469118831152637        0.461783768670787
        0.474876569001884        0.470638499460132
        0.480634306851131        0.479564273877395
        0.486392044700379         0.48856172010234
        0.492149782549626        0.497631475882201
        0.497907520398874        0.506774195581049
        0.503665258248121         0.51599055502294
        0.509422996097368         0.52528123576082
        0.515180733946616        0.534646946376732
        0.520938471795863        0.544088404608044
         0.52669620964511        0.553606343169849
        0.532453947494358        0.563201503751326
        0.538211685343605        0.572874662620311
        0.543969423192852        0.582626588865354
          0.5497271610421         0.59245808520001
        0.555484898891347        0.602369944008893
        0.561242636740595        0.612363011014189
        0.567000374589842        0.622438089771097
        0.572758112439089        0.632596059178926
        0.578515850288337        0.642837779872299
        0.584273588137584        0.653164116019132
        0.590031325986832        0.663575977215576
        0.595789063836079        0.674074259730065
        0.601546801685326        0.684659890373654
        0.607304539534574        0.695333934864266
        0.613062277383821         0.70609707619854
        0.618820015233068        0.716950407577548
        0.624577753082316        0.727894904543704
        0.630335490931563        0.738931558796342
        0.636093228780811        0.750061361873198
        0.641850966630058        0.761285339710263
        0.647608704479305        0.772604516613018
        0.653366442328553        0.784019934351613
          0.6591241801778        0.795532647636172
        0.664881918027047        0.807143723757376
        0.670639655876295        0.818854242097116
        0.676397393725542        0.830665296631878
         0.68215513157479        0.842577993154895
        0.687912869424037        0.854593449585844
        0.693670607273284        0.866712797092767
        0.699428345122532        0.878937178870538
        0.705186082971779        0.891267750544217
        0.710943820821026        0.903705680167762
        0.716701558670274        0.916252149930345
        0.722459296519521        0.928908344264009
        0.728217034368769        0.941675475052629
        0.733974772218016        0.954554755248297
        0.739732510067263          0.9675474125555
        0.745490247916511        0.980654686083494
        0.751247985765758        0.993877825943632
        0.757005723615006         1.00721809441346
        0.762763461464253         1.02067676440739
          0.7685211993135         1.03425512020649
        0.774278937162748         1.04795445714634
        0.780036675011995         1.06177608010574
        0.785794412861242         1.07572130671205
         0.79155215071049         1.08979146366695
        0.797309888559737         1.10398788831418
        0.803067626408985         1.11831192827764
        0.808825364258232         1.13276494124907
        0.814583102107479          1.1473482946098
        0.820340839956727         1.16206337000545
        0.826098577805974         1.17691154045859
        0.831856315655221         1.19189421529381
        0.837614053504469         1.20701279747726
        0.843371791353716         1.22226869446827
        0.849129529202964         1.23766333493146
        0.854887267052211         1.25319814806126
        0.860645004901458         1.26887457304407
        0.866402742750706         1.28469405707362
        0.872160480599953         1.30065805615937
          0.8779182184492         1.31676803221661
        0.883675956298448         1.33302545571993
        0.889433694147695         1.34943180357216
        0.895191431996943         1.36598855994702
         0.90094916984619         1.38269721531101
        0.906706907695437         1.39955926651113
        0.912464645544685         1.41657621617016
        0.918222383393932         1.43374957284747
         0.92398012124318         1.45108085051824
        0.929737859092427         1.46857156830405
        0.935495596941674         1.48622324972136
        0.941253334790922         1.50403742280811
        0.947011072640169         1.52201562069752
        0.952768810489416         1.54015937889301
        0.958526548338664         1.55847023759177
        0.964284286187911          1.5769497393704
        0.970042024037159         1.59559942984409
        0.975799761886406         1.61442085702329
        0.981557499735653         1.63341557083528
        0.987315237584901          1.6525851257482
        0.993072975434148         1.67193106580503
        0.998830713283395         1.69145495343443
         1.00458845113264         1.71115833962048
         1.01034618898189         1.73104277979277
         1.01610392683114         1.75110982349878
         1.02186166468038         1.77136102723055
         1.02761940252963         1.79179794109781
         1.03337714037888         1.81242211441657
         1.03913487822813         1.83323509440833
         1.04489261607737         1.85423842544733
         1.05065035392662         1.87543364885683
         1.05640809177587         1.89682230152854
         1.06216582962512         1.91840591686972
         1.06792356747436         1.94018602304827
         1.07368130532361         1.96216414289932
         1.07943904317286         1.98434179345567
         1.08519678102211         2.00672048527436
         1.09095451887135         2.02930172194681
          1.0967122567206         2.05208699915237
         1.10246999456985         2.07507780478057
          1.1082277324191         2.09827561781607
         1.11398547026834         2.12168190772107
         1.11974320811759          2.1452981340478
         1.12550094596684          2.1691257456665
         1.13125868381609         2.19316617995613
         1.13701642166533         2.21742086269271
         1.14277415951458          2.2418912067618
         1.14853189736383         2.26657861185705
         1.15428963521307         2.29148446358111
         1.16004737306232         2.31661013281535
         1.16580511091157         2.34195697520955
         1.17156284876082         2.36752633012026
         1.17732058661006         2.39331952000393
         1.18307832445931          2.4193378498649
         1.18883606230856         2.44558260627181
         1.19459380015781         2.47205505626436
         1.20035153800705         2.49875644744051
          1.2061092758563         2.52568800670321
