            sqrt(s) [GeV]               sigma [mb]
       0.0458541178888169      0.00344068654760046
       0.0516813455266674      0.00347345820280686
       0.0575085731645179      0.00423436947018585
       0.0633358008023683      0.00540873989728435
       0.0691630284402188      0.00688476591434669
       0.0749902560780693      0.00859714257241266
       0.0808174837159198       0.0105042525899008
       0.0866447113537703       0.0125780523122927
       0.0924719389916208       0.0147988061561755
       0.0982991666294713       0.0171521144847124
        0.104126394267322       0.0196271417584804
        0.109953621905172       0.0222155146743082
        0.115780849543023       0.0249106126064009
        0.121608077180873       0.0277070967406445
        0.127435304818724       0.0306005891164915
        0.133262532456574       0.0335874486224369
        0.139089760094425       0.0366646110914298
        0.144916987732275       0.0398294728763872
        0.150744215370126       0.0430798044274271
        0.156571443007976       0.0464136849978627
        0.162398670645827       0.0498294524513014
        0.168225898283677       0.0533256640181843
        0.174053125921528       0.0569010656958199
        0.179880353559378       0.0605545665259116
        0.185707581197229       0.0642852189701182
        0.191534808835079       0.0680922019666566
         0.19736203647293       0.0719748069567363
         0.20318926411078       0.0759324262224588
         0.20901649174863         0.07996454263094
        0.214843719386481       0.0840707215235703
        0.220670947024331       0.0882506027819547
        0.226498174662182       0.0925038948238036
        0.232325402300032       0.0968303684626837
        0.238152629937883        0.101229852556348
        0.243979857575733        0.105702228586594
        0.249807085213584        0.110247427717614
        0.255634312851434         0.11486542635589
        0.261461540489285        0.119556243773994
        0.267288768127135         0.12431993915511
        0.273115995764986        0.129156606544778
        0.278943223402836        0.134066377639664
        0.284770451040687        0.139049414744214
        0.290597678678537        0.144105910961784
        0.296424906316388        0.149236087479141
        0.302252133954238        0.154440193973878
        0.308079361592089        0.159718503826855
        0.313906589229939        0.165071315932899
         0.31973381686779        0.170498951622833
         0.32556104450564        0.176001753975577
        0.331388272143491        0.181580085932295
        0.337215499781341        0.187234330718863
        0.343042727419192        0.192964890574866
        0.348869955057042        0.198772185080617
        0.354697182694893        0.204656650324677
        0.360524410332743        0.210618740442706
        0.366351637970594        0.216658923471075
        0.372178865608444        0.222777684727073
        0.378006093246295        0.228975521034531
        0.383833320884145        0.235252945444742
        0.389660548521996        0.241610483939994
        0.395487776159846        0.248048676821223
        0.401315003797697        0.254568075250413
        0.407142231435547        0.261169243179972
        0.412969459073397         0.26785275788604
        0.418796686711248        0.274619207050585
        0.424623914349098        0.281469190395551
        0.430451141986949        0.288403318429334
        0.436278369624799        0.295422213544858
         0.44210559726265        0.302526508788057
          0.4479328249005        0.309716845777932
        0.453760052538351        0.316993880562908
        0.459587280176201        0.324358275825274
        0.465414507814052        0.331810705877521
        0.471241735451902        0.339351855435931
        0.477068963089753        0.346982418831142
        0.482896190727603        0.354703100410361
        0.488723418365454        0.362514614476394
        0.494550646003304        0.370417684620618
        0.500377873641155        0.378413044958577
        0.506205101279005        0.386501439258609
        0.512032328916856        0.394683620790722
        0.517859556554706        0.402960352428097
        0.523686784192557        0.411332407234475
        0.529514011830407          0.4198005680094
        0.535341239468258        0.428365626437538
        0.541168467106108        0.437028385238365
        0.546995694743959        0.445789656068714
        0.552822922381809        0.454650261458246
         0.55865015001966        0.463611033323412
         0.56447737765751         0.47267281339765
        0.570304605295361        0.481836454048969
        0.576131832933211        0.491102817100945
        0.581959060571062        0.500472775600531
        0.587786288208912        0.509947211784541
        0.593613515846763        0.519527019180213
        0.599440743484613         0.52921310131633
        0.605267971122464         0.53900637235668
        0.611095198760314        0.548907757186037
        0.616922426398165        0.558918191793806
        0.622749654036015        0.569038622459447
        0.628576881673865        0.579270006628456
        0.634404109311716        0.589613313022785
        0.640231336949566        0.600069521134059
        0.646058564587417        0.610639622253834
        0.651885792225267         0.62132461827798
        0.657713019863118         0.63212552329223
        0.663540247500968        0.643043362789224
        0.669367475138819        0.654079173572524
        0.675194702776669        0.665234004673387
         0.68102193041452        0.676508916700213
         0.68684915805237        0.687904982230057
        0.692676385690221        0.699423286242866
        0.698503613328071         0.71106492541391
        0.704330840965922         0.72283100932965
        0.710158068603772        0.734722659127146
        0.715985296241623         0.74674100924208
        0.721812523879473        0.758887205956416
        0.727639751517324         0.77116240802836
        0.733466979155174        0.783567788184062
        0.739294206793025        0.796104530618006
        0.745121434430875        0.808773832626331
        0.750948662068726        0.821576904704407
        0.756775889706576        0.834514970179975
        0.762603117344427        0.847589265121625
        0.768430344982277        0.860801039225673
        0.774257572620128        0.874151554890985
        0.780084800257978        0.887642087836182
        0.785912027895829        0.901273927005774
        0.791739255533679         0.91504837448916
         0.79756648317153         0.92896674535123
         0.80339371080938        0.943030368229981
        0.809220938447231        0.957240585040973
        0.815048166085081        0.971598751009091
        0.820875393722932        0.986106234451983
        0.826702621360782         1.00076441696127
        0.832529848998632         1.01557469345707
        0.838357076636483          1.0305384718606
        0.844184304274333         1.04565717343546
        0.850011531912184         1.06093223258078
        0.855838759550034         1.07636509644601
        0.861665987187885         1.09195722576057
        0.867493214825735         1.10771009344023
        0.873320442463586          1.1236251858969
        0.879147670101436         1.13970400202909
        0.884974897739287         1.15594805330323
        0.890802125377137         1.17235886397112
        0.896629353014988         1.18893797051775
        0.902456580652838         1.20568692177917
        0.908283808290689         1.22260727882688
        0.914111035928539          1.2397006146769
         0.91993826356639          1.2569685142543
         0.92576549120424         1.27441257395946
        0.931592718842091         1.29203440207322
        0.937419946479941         1.30983561784919
        0.943247174117792         1.32781785180249
        0.949074401755642         1.34598274534039
        0.954901629393493          1.3643319505062
        0.960728857031343         1.38286712982675
        0.966556084669194         1.40158995580324
        0.972383312307044         1.42050211107667
        0.978210539944895         1.43960528787158
        0.984037767582745         1.45890118775301
        0.989864995220596         1.47839152126123
        0.995692222858446         1.49807800779396
          1.0015194504963         1.51796237511167
         1.00734667813415         1.53804635906301
           1.013173905772         1.55833170309255
         1.01900113340985         1.57882015825808
          1.0248283610477         1.59951348246257
         1.03065558868555         1.62041344006371
          1.0364828163234         1.64152180183683
         1.04231004396125         1.66284034421377
          1.0481372715991         1.68437084900416
         1.05396449923695         1.70611510285459
          1.0597917268748         1.72807489684653
         1.06561895451265         1.75025202602998
          1.0714461821505          1.7726482888571
         1.07727340978835         1.79526548674935
          1.0831006374262         1.81810542360053
         1.08892786506405         1.84116990516742
          1.0947550927019         1.86446073834504
         1.10058232033975         1.88797973117806
         1.10640954797761         1.91172869164417
         1.11223677561546         1.93570942738949
         1.11806400325331         1.95992374489879
         1.12389123089116         1.98437344916745
         1.12971845852901         2.00906034286359
         1.13554568616686         2.03398622558769
         1.14137291380471         2.05915289340071
         1.14720014144256         2.08456213791426
         1.15302736908041         2.11021574572521
         1.15885459671826          2.1361154977296
         1.16468182435611         2.16226316826003
         1.17050905199396         2.18866052428345
         1.17633627963181         2.21530932476562
         1.18216350726966         2.24221131980052
         1.18799073490751         2.26936824979848
         1.19381796254536         2.29678184467434
         1.19964519018321         2.32445382297251
         1.20547241782106         2.35238589101373
