            sqrt(s) [GeV]               sigma [mb]
        0.401982478304225        0.123367729831427
        0.406023316482879        0.126933522392478
        0.410064154661533        0.135880604766801
        0.414104992840186        0.146159952564367
         0.41814583101884        0.157283342033867
        0.422186669197494        0.168999954785427
        0.426227507376147        0.181145176759145
        0.430268345554801        0.193600719514235
        0.434309183733455        0.206278736489179
        0.438350021912108        0.219113932822559
        0.442390860090762         0.23205897670136
        0.446431698269416        0.245081715398192
        0.450472536448069        0.258163482577108
        0.454513374626723         0.27129826072123
        0.458554212805377         0.28449252441587
         0.46259505098403         0.29776605404632
        0.466635889162684        0.311153982077569
        0.470676727341337        0.324711477388802
        0.474717565519991        0.338525736140965
        0.478758403698645        0.352767332764997
        0.482799241877298        0.367789017364996
        0.486840080055952         0.38324618920886
        0.490880918234606        0.398913738817559
        0.494921756413259        0.414678276235543
        0.498962594591913        0.430466421354082
        0.503003432770567        0.446226535818118
         0.50704427094922        0.461921651631171
        0.511085109127874        0.477523277250871
        0.515125947306527        0.493010412244288
        0.519166785485181        0.508370853399577
        0.523207623663835        0.523581813074775
        0.527248461842489        0.538644477769389
        0.531289300021142        0.553549441125281
        0.535330138199796        0.568292518367823
        0.539370976378449        0.582868877791942
        0.543411814557103        0.597278806785388
        0.547452652735757        0.611520577810596
         0.55149349091441        0.625594676213552
        0.555534329093064        0.639501926657848
        0.559575167271718        0.653247120271856
        0.563616005450371        0.666820144170612
        0.567656843629025        0.680242396317792
        0.571697681807679        0.693503124028636
        0.575738519986332        0.706608444568731
        0.579779358164986        0.719562222246682
         0.58382019634364        0.732367528069074
        0.587861034522293        0.745027364126723
        0.591901872700947        0.757546196191351
          0.5959427108796        0.769926567132964
        0.599983549058254        0.782173235104874
        0.604024387236908        0.794284825981465
        0.608065225415561         0.80627524333933
        0.612106063594215        0.818137945582869
        0.616146901772869        0.829882281839538
        0.620187739951522        0.841507596744554
        0.624228578130176         0.85301938056432
         0.62826941630883        0.864418988456681
        0.632310254487483        0.875710726751187
        0.636351092666137        0.886897138939216
        0.640391930844791        0.897975666187634
        0.644432769023444        0.908953822011375
        0.648473607202098        0.919830103664483
        0.652514445380752        0.930605013079715
        0.656555283559405        0.941277593723109
        0.660596121738059        0.951844885831572
        0.664636959916712        0.962300186167421
        0.668677798095366        0.972626801174803
         0.67271863627402        0.982774228762802
        0.676759474452673        0.992806394759591
        0.680800312631327         1.00274503431795
        0.684841150809981         1.01265803891842
        0.688881988988634         1.02254548527941
        0.692922827167288          1.0324245266154
        0.696963665345942         1.04229854799275
        0.701004503524595         1.05221503107931
        0.705045341703249         1.06208881632818
        0.709086179881903         1.07200609834189
        0.713127018060556         1.08194655956034
         0.71716785623921         1.09191916494204
        0.721208694417864         1.10190418927899
        0.725249532596517         1.11192206916856
        0.729290370775171         1.12197759343865
        0.733331208953824         1.13206111237167
        0.737372047132478         1.14220289003026
        0.741412885311132         1.15233218548827
        0.745453723489785         1.16251865652413
        0.749494561668439         1.17274281587529
        0.753535399847093         1.18300295437166
        0.757576238025746         1.19329891430495
          0.7616170762044         1.20363386553409
        0.765657914383054         1.21400332803172
        0.769698752561707         1.22441138679941
        0.773739590740361          1.2348608352953
        0.777780428919015         1.24535179610073
        0.781821267097668         1.25589212996022
        0.785862105276322          1.2664405279325
        0.789902943454976         1.27703020509423
        0.793943781633629         1.28767318949792
        0.797984619812283         1.29835419990622
        0.802025457990936         1.30907639443995
         0.80606629616959         1.31983436646377
        0.810107134348244         1.33064069676707
        0.814147972526897         1.34149005400287
        0.818188810705551         1.35237473279225
        0.822229648884205         1.36330497740838
        0.826270487062858         1.37427929369195
        0.830311325241512         1.38529689239925
        0.834352163420166         1.39635227271385
        0.838393001598819         1.40745388514733
        0.842433839777473         1.41860022848092
        0.846474677956127         1.42979208315126
         0.85051551613478         1.44103139213466
        0.854556354313434         1.45232013031901
        0.858597192492087         1.46359450537747
        0.862638030670741         1.47502608992161
        0.866678868849395         1.48645057083819
        0.870719707028048         1.49792446050733
        0.874760545206702         1.50944760895235
        0.878801383385356         1.52102157032166
        0.882842221564009         1.53264830971125
        0.886883059742663         1.54434736973182
        0.890923897921317         1.55603714936329
         0.89496473609997         1.56782589564342
        0.899005574278624         1.57966272719353
        0.903046412457278         1.59155038224408
        0.907087250635931         1.60350223578558
        0.911128088814585         1.61550531541264
        0.915168926993239          1.6275525804405
        0.919209765171892          1.6396500587947
        0.923250603350546         1.65182504546413
          0.9272914415292         1.66405890651562
        0.931332279707853          1.6763374585325
        0.935373117886507         1.68868219930681
         0.93941395606516         1.70109032821457
        0.943454794243814         1.71355940614024
        0.947495632422468         1.72610374362275
        0.951536470601121         1.73870452955853
        0.955577308779775         1.75134765768394
        0.959618146958429          1.7640819546837
        0.963658985137082         1.77687757057131
        0.967699823315736         1.78974126604742
         0.97174066149439         1.80267456734748
        0.975781499673043         1.81567042111295
        0.979822337851697         1.82874466955536
         0.98386317603035         1.84188998239403
        0.987904014209004         1.85510847838106
        0.991944852387658         1.86840228724161
        0.995985690566311         1.88176948686646
         1.00002652874497         1.89520995130539
         1.00406736692362         1.90868418936723
         1.00810820510227         1.92233615498298
         1.01214904328093         1.93602134647877
         1.01618988145958         1.94979171697163
         1.02023071963823         1.96364944132376
         1.02427155781689         1.97760126917964
         1.02831239599554         1.99165386900054
         1.03235323417419         2.00579688913611
         1.03639407235285         2.02003366571841
          1.0404349105315         2.03435151985322
         1.04447574871016         2.04876227975234
         1.04851658688881         2.06326037407109
         1.05255742506746         2.07784498124682
         1.05659826324612         2.09250904713533
         1.06063910142477          2.1072594325665
         1.06467993960342         2.12208841289491
         1.06872077778208         2.13701705472228
         1.07276161596073         2.15202464646809
         1.07680245413938         2.16711761300327
         1.08084329231804         2.18229762987711
         1.08488413049669         2.19755831553843
         1.08892496867535         2.21291078472753
           1.092965806854         2.22834761902423
         1.09700664503265         2.24387064602789
         1.10104748321131         2.25947706389731
         1.10508832138996         2.27518350235239
         1.10912915956861         2.29097036947717
         1.11316999774727         2.30684289446184
         1.11721083592592         2.32283970940903
         1.12125167410457         2.33886457953123
         1.12529251228323          2.3550063534569
         1.12933335046188         2.37122774918934
         1.13337418864054         2.38755524391059
         1.13741502681919         2.40397136501706
         1.14145586499784         2.42046764701262
          1.1454967031765          2.4370305234264
         1.14953754135515         2.45375431256537
          1.1535783795338         2.47053317604973
         1.15761921771246         2.48741118286406
         1.16166005589111         2.50437313486554
         1.16570089406976         2.52143579297758
         1.16974173224842         2.53858994696474
         1.17378257042707         2.55583871265426
         1.17782340860573          2.5731845055796
         1.18186424678438         2.59062552202851
         1.18590508496303         2.60815388229159
         1.18994592314169         2.62580081679058
         1.19398676132034         2.64352532519585
         1.19802759949899         2.66135685727682
         1.20206843767765         2.67928023412547
          1.2061092758563         2.69731292246547
