            sqrt(s) [GeV]               sigma [mb]
        0.401982478309435        0.208502201999465
        0.406023316488063        0.244982205556003
        0.410064154666691        0.287274969311688
         0.41410499284532        0.335659740343927
        0.418145831023948        0.390664112739195
        0.422186669202576        0.452882060828717
        0.426227507381204        0.522971494579572
        0.430268345559833         0.60165794199337
        0.434309183738461        0.689739611482536
        0.438350021917089        0.788092886874927
        0.442390860095717        0.897677856643789
        0.446431698274346         1.01954355054511
        0.450472536452974         1.15483250444394
        0.454513374631602         1.30478416508109
         0.45855421281023         1.47073649507337
        0.462595050988859         1.65412494551615
        0.466635889167487         1.85647772835373
        0.470676727346115         2.07940604393832
        0.474717565524743         2.32458760761541
        0.478758403703372         2.59374148925789
           0.482799241882         2.88859196355641
        0.486840080060628         3.21081882156929
        0.490880918239256         3.56199150118653
        0.494921756417885         3.94348457925216
        0.498962594596513         4.35637279623054
        0.503003432775141          4.8013050552801
        0.507044270953769         5.27835896264423
        0.511085109132398         5.78688062560752
        0.515125947311026         6.32531864117312
        0.519166785489654         6.89106628173771
        0.523207623668282         7.48033121457075
        0.527248461846911         8.08805657472736
        0.531289300025539         8.70791926122544
        0.535330138204167         9.33242909705641
        0.539370976382795         9.95314442448559
        0.543411814561424         10.5610052895733
        0.547452652740052          11.146765951062
         0.55149349091868         11.7014876069424
        0.555534329097308         12.2170352968059
        0.559575167275937         12.6865154854065
        0.563616005454565         13.1045965480404
        0.567656843633193         13.4676732234208
        0.571697681811822         13.7738638055054
         0.57573851999045         14.0228581949402
        0.579779358169078         14.2156583210098
        0.583820196347706         14.3542645701521
        0.587861034526335         14.4413612161007
        0.591901872704963         14.4800426856344
        0.595942710883591         14.4736053994203
        0.599983549062219         14.4254119950877
        0.604024387240848         14.3388200507779
        0.608065225419476         14.2171582605559
        0.612106063598104          14.063729785116
        0.616146901776732         13.8818242051605
        0.620187739955361         13.6747243584389
        0.624228578133989         13.4457004177836
        0.628269416312617         13.1979892651813
        0.632310254491245         12.9347615122202
        0.636351092669874         12.6590810049204
        0.640391930848502         12.3738624306046
         0.64443276902713         12.0818321277018
        0.648473607205758         11.7854959126183
        0.652514445384387         11.4871161697762
        0.656555283563015         11.1886989663659
        0.660596121741643         10.8919907673349
        0.664636959920271         10.5984835214427
          0.6686777980989         10.3094264534118
        0.672718636277528         10.0258427641823
        0.676759474456156         9.74854952436181
        0.680800312634784         9.47817926116127
        0.684841150813413         9.21520201704679
        0.688881988992041         8.95994694857988
        0.692922827170669          8.7126228041496
        0.696963665349297         8.47333685200506
        0.701004503527926         8.24211201848995
        0.705045341706554         8.01890214098418
        0.709086179885182         7.80360534519497
        0.713127018063811         7.59607562832308
        0.717167856242439          7.3961327749821
        0.721208694421067         7.20357075782696
        0.725249532599695         7.01816478511371
        0.729290370778323         6.83967715734011
        0.733331208956952         6.66786208822796
         0.73737204713558         6.50246963426132
        0.741412885314208          6.3432488637363
        0.745453723492836         6.18995038217534
        0.749494561671465         6.04232831692984
        0.753535399850093         5.90014185043166
        0.757576238028721          5.7631563791936
         0.76161707620735         5.63114436448098
        0.765657914385978         5.50388593063103
        0.769698752564606         5.38116925826647
        0.773739590743234         5.26279081206429
        0.777780428921862         5.14855543621159
        0.781821267100491         5.03827634509294
        0.785862105279119         4.93177501030146
        0.789902943457747         4.82888109315421
        0.793943781636375         4.72943211184095
        0.797984619815004         4.63327329119239
        0.802025457993632         4.54025727850538
         0.80606629617226         4.45024386447048
        0.810107134350889         4.36309969401665
        0.814147972529517         4.27869797234751
        0.818188810708145         4.19691817033266
        0.822229648886773         4.11764573250233
        0.826270487065402         4.04077179014625
         0.83031132524403         3.96619288140644
        0.834352163422658         3.89381067975696
        0.838393001601286         3.82353173186232
        0.842433839779915         3.75526720548214
        0.846474677958543         3.68893264783128
        0.850515516137171         3.62444775459858
        0.854556354315799         3.56173614966534
        0.858597192494428         3.50072517543677
        0.862638030673056         3.44134569361332
        0.866678868851684         3.38353189612299
        0.870719707030312         3.32722112593588
        0.874760545208941         3.27235370738919
        0.878801383387569         3.21887278565794
        0.882842221566197         3.16672417497948
        0.886883059744825         3.11585621523353
        0.890923897923454         3.06621963647893
        0.894964736102082         3.01776743104347
         0.89900557428071         2.97045473279321
        0.903046412459338         2.92423870317873
        0.907087250637967         2.87907842370636
        0.911128088816595         2.83493479447192
        0.915168926995223         2.79177043841689
        0.919209765173851          2.7495496109804
         0.92325060335248         2.70823812101546
        0.927291441531108         2.66780322495089
        0.931332279709736         2.62821358982257
        0.935373117888364         2.58943919490843
        0.939413956066993         2.55145127080261
        0.943454794245621         2.51422223542186
        0.947495632424249         2.47772563353561
        0.951536470602877         2.44193607960741
        0.955577308781506         2.40682920374733
        0.959618146960134         2.37238160058679
        0.963658985138762         2.33857078089808
         0.96769982331739         2.30537512579154
        0.971740661496019         2.27277384333281
        0.975781499674647         2.24074692743187
        0.979822337853275          2.2092751188646
        0.983863176031904         2.17833986829529
        0.987904014210532         2.14792330117644
         0.99194485238916          2.1180081844092
        0.995985690567788         2.08857789465462
         1.00002652874642          2.0596163881917
         1.00406736692504         2.03110817222455
         1.00810820510367         2.00303827754566
          1.0121490432823         1.97539223246786
         1.01618988146093         1.94815603794157
         1.02023071963956         1.92131614377843
         1.02427155781819         1.89485942590634
         1.02831239599681         1.86877316458367
         1.03235323417544          1.8430450235044
         1.03639407235407          1.8176630297289
          1.0404349105327         1.79261555437607
         1.04447574871133         1.76789129401647
         1.04851658688996         1.74347925270679
         1.05255742506858         1.71936872460813
         1.05659826324721          1.6955492771311
         1.06063910142584          1.6720107345524
         1.06467993960447         1.64874316204712
          1.0687207777831         1.62573685008181
         1.07276161596173         1.60298229911274
         1.07680245414035         1.58047020453304
         1.08084329231898         1.55819144181129
         1.08488413049761         1.53613705176251
         1.08892496867624         1.51429822588993
         1.09296580685487         1.49266629173332
         1.09700664503349         1.47123269815597
         1.10104748321212         1.44998900049792
         1.10508832139075         1.42892684551754
         1.10912915956938         1.40803795603766
         1.11316999774801          1.3873141152042
         1.11721083592664         1.36674715025669
         1.12125167410526          1.3463289156988
         1.12529251228389           1.326051275745
         1.12933335046252         1.30590608590363
         1.13337418864115         1.28588517353956
         1.13741502681978         1.26598031723795
         1.14145586499841         1.24618322476612
         1.14549670317703         1.22648550940018
         1.14953754135566         1.20687869727978
         1.15357837953429         1.18735406857473
         1.15761921771292         1.16790282264498
         1.16166005589155         1.14851591500696
         1.16570089407017         1.12918405270524
          1.1697417322488         1.10989765335203
         1.17378257042743         1.09064679937668
         1.17782340860606         1.07142118664893
         1.18186424678469         1.05221006647063
         1.18590508496332         1.03300217972266
         1.18994592314194         1.01378568169173
         1.19398676132057        0.994548055773716
          1.1980275994992         0.97527601383339
         1.20206843767783        0.955955380468846
         1.20610927585646        0.936570957744392
