            sqrt(s) [GeV]               sigma [mb]
       0.0677115312297916         0.21443589577979
       0.0734340941617359        0.223479379342637
       0.0791566570936803        0.251288176897719
       0.0848792200256247        0.288849154832885
       0.0906017829575691        0.335249671946537
       0.0963243458895135        0.390359508818674
        0.102046908821458        0.454434348868548
        0.107769471753402        0.528001570508848
        0.113492034685347        0.611819550971087
        0.119214597617291        0.706867793632218
        0.124937160549235        0.814354174789946
         0.13065972348118        0.935734589341668
        0.136382286413124         1.07274319216553
        0.142104849345069         1.22743188374875
        0.147827412277013         1.40222064856693
        0.153549975208957         1.59995843140575
        0.159272538140902         1.82399570867856
        0.164995101072846          2.0782689202895
         0.17071766400479         2.36739799102514
        0.176440226936735         2.69679107757887
        0.182162789868679         3.07275644743531
        0.187885352800624         3.50260703103498
        0.193607915732568         3.99473922883706
        0.199330478664512         4.55865088155588
        0.205053041596457         5.20484037174608
        0.210775604528401         5.94449460034594
        0.216498167460346          6.7888267652138
         0.22222073039229         7.74786873745314
        0.227943293324234         8.82847299850193
        0.233665856256179         10.0312762809365
        0.239388419188123         11.3465021969494
        0.245110982120067         12.7488564152826
        0.250833545052012          14.192509784264
        0.256556107983956         15.6082185542818
        0.262278670915901         16.9055161851295
        0.268001233847845         17.9826068864175
        0.273723796779789         18.7440742689418
        0.279446359711734          19.122119462603
        0.285168922643678         19.0933889914787
        0.290891485575623         18.6839712375495
        0.296614048507567         17.9605211108113
        0.302336611439511         17.0121476224218
        0.308059174371456         15.9309731379957
          0.3137817373034         14.7976983753701
        0.319504300235345          13.674449986587
        0.325226863167289         12.6037869120759
        0.330949426099233         11.6113632691182
        0.336671989031178         10.7099654209294
        0.342394551963122          9.9034824897227
        0.348117114895066         9.19015928692672
        0.353839677827011         8.56498595102466
        0.359562240758955         8.02132191758646
          0.3652848036909         7.55192973406211
        0.371007366622844         7.14959056282799
        0.376729929554788         6.80744019070004
        0.382452492486733         6.51912694047306
        0.388175055418677         6.27886122982944
        0.393897618350622         6.08140289468387
        0.399620181282566         5.92201566602059
         0.40534274421451         5.79640724859911
        0.411065307146455         5.70066618725302
        0.416787870078399         5.63120212410667
        0.422510433010343         5.58469325276533
        0.428232995942288         5.55804283908889
        0.433955558874232         5.54834565862205
        0.439678121806177         5.55286426719858
        0.445400684738121          5.5690145687506
        0.451123247670065         5.59435962585232
         0.45684581060201         5.62661036825708
        0.462568373533954         5.66363156905116
        0.468290936465899         5.70345133107306
        0.474013499397843         5.74427224534029
        0.479736062329787         5.78448249025943
        0.485458625261732         5.82266529606386
        0.491181188193676         5.85760550185298
        0.496903751125621         5.88829229107163
        0.502626314057565         5.91391759417124
        0.508348876989509         5.93387003139058
        0.514071439921454         5.94772465947076
        0.519794002853398         5.95522905575211
        0.525516565785342         5.95628649970932
        0.531239128717287         5.95093712219371
        0.536961691649231          5.9393379319882
        0.542684254581176         5.92174257865717
         0.54840681751312         5.89848161807797
        0.554129380445064         5.86994390525776
        0.559851943377009         5.83655959285237
        0.565574506308953         5.79878506265029
        0.571297069240898          5.7570899783057
        0.577019632172842          5.7119465386908
        0.582742195104786         5.66382093167382
        0.588464758036731         5.61316692924059
        0.594187320968675         5.56042159740622
         0.59990988390062         5.50600310172881
        0.605632446832564         5.45031077837445
        0.611355009764508         5.39372791781949
        0.617077572696453         5.33662830557818
        0.622800135628397         5.27938889634595
        0.628522698560341         5.22241390958959
        0.634245261492286         5.16618312574377
         0.63996782442423         5.11135813229148
        0.645690387356175         5.05904919573315
        0.651412950288119         5.01162303420358
        0.657135513220063         4.97593734054537
        0.662858076152008         4.98171121060797
        0.668580639083952          4.3156783450983
        0.674303202015896         4.64474912606229
        0.680025764947841         4.63666913370226
        0.685748327879785         4.60112492810391
         0.69147089081173         4.55847338507246
        0.697193453743674         4.51349652723874
        0.702916016675618         4.46790607690015
        0.708638579607563         4.42246882257947
        0.714361142539507         4.37757945797483
        0.720083705471452         4.33346039237219
        0.725806268403396         4.29024443097201
         0.73152883133534         4.24801357083853
        0.737251394267285         4.20681924644951
        0.742973957199229         4.16669436093494
        0.748696520131173         4.12766342340635
        0.754419083063118         4.08977411187786
        0.760141645995062         4.05219947717118
        0.765864208927007         4.01594892619957
        0.771586771858951         3.98092373632688
        0.777309334790895         3.94702963277508
         0.78303189772284         3.91422007078071
        0.788754460654784         3.88246151241889
        0.794477023586729         3.85172567983182
        0.800199586518673         3.82198691441737
        0.805922149450617         3.79322110743866
        0.811644712382562         3.76540524485384
        0.817367275314506         3.73851723487916
        0.823089838246451         3.71253587131648
        0.828812401178395         3.68744085391032
        0.834534964110339         3.66321281142716
        0.840257527042284         3.63983327732296
        0.845980089974228         3.61728457703048
        0.851702652906172          3.5955496022025
        0.857425215838117         3.57461147909571
        0.863147778770061         3.55445318074804
        0.868870341702006         3.53505717081392
         0.87459290463395         3.51640517534074
        0.880315467565894         3.49847814620999
        0.886038030497839         3.48125642452514
        0.891760593429783         3.46472004629442
        0.897483156361727         3.44884910003608
        0.903205719293672         3.43362405159627
        0.908928282225616          3.4190259783824
        0.914650845157561         3.40503669780465
        0.920373408089505         3.39163880179039
        0.926095971021449         3.37881562241956
        0.931818533953394          3.3665511584688
        0.937541096885338         3.35482998124018
        0.943263659817283         3.34363714333586
        0.948986222749227         3.33295808828163
        0.954708785681171         3.32277857218959
        0.960431348613116         3.31308459455289
         0.96615391154506         3.30386233725182
        0.971876474477005         3.29509811196382
        0.977599037408949         3.28677830869179
        0.983321600340893         3.27888935061314
        0.989044163272838         3.27141764711519
        0.994766726204782         3.26434954763462
         1.00048928913673         3.25767129291012
         1.00621185206867         3.25136896316819
         1.01193441500062         3.24542842192058
         1.01765697793256          3.2398352540698
          1.0233795408645         3.23457469718415
         1.02910210379645          3.2296315643138
         1.03482466672839         3.22499015703882
         1.04054722966034         3.22063416536639
         1.04626979259228         3.21654655469943
         1.05199235552423         3.21270943365403
         1.05771491845617         3.20910390120577
         1.06343748138811         3.20570986764197
         1.06916004432006         3.20250584325486
           1.074882607252         3.19946868713963
         1.08060517018395         3.19657330673456
         1.08632773311589         3.19379229380476
         1.09205029604784         3.19109548147257
         1.09777285897978         3.18844939796483
         1.10349542191173         3.18581658632562
         1.10921798484367         3.18315474879956
         1.11494054777561          3.1804156534155
         1.12066311070756         3.17754372019294
          1.1263856736395         3.17447416224417
         1.13210823657145         3.17113049799143
         1.13783079950339         3.16742115471969
         1.14355336243534         3.16323472240031
         1.14927592536728          3.1584331441827
         1.15499848829922         3.15284163220336
         1.16072105123117         3.14623316957058
         1.16644361416311         3.13830358542109
         1.17216617709506         3.12862914697683
           1.177888740027         3.11658901562723
         1.18361130295895         3.10120918926633
         1.18933386589089         3.08080304630458
         1.19505642882284         3.05195209171591
         1.20077899175478         3.00527352792575
         1.20650155468672         2.75044118543263
