            sqrt(s) [GeV]               sigma [mb]
        0.486538477413968        0.441701157907746
        0.490194618273846        0.392458456114635
        0.493850759133723        0.384814601100523
        0.497506899993601        0.383052573084032
        0.501163040853479        0.384278954975276
        0.504819181713357         0.38742482200695
        0.508475322573234        0.391961639972983
        0.512131463433112         0.39759053635794
         0.51578760429299        0.404132973165919
        0.519443745152868        0.411483887159966
        0.523099886012746        0.419589534827584
        0.526756026872623        0.428437446189006
        0.530412167732501        0.438054695793537
        0.534068308592379        0.448517116300799
        0.537724449452257        0.459992824515349
        0.541380590312134        0.473050505133178
        0.545036731172012        0.487510923625681
         0.54869287203189        0.502648099011271
        0.552349012891768        0.518152285389254
        0.556005153751645        0.533842130778786
        0.559661294611523        0.549600685042953
        0.563317435471401        0.565349219229533
        0.566973576331279        0.581033115423105
        0.570629717191157        0.596614328016197
        0.574285858051034        0.612066015143686
        0.577941998910912        0.627369130043606
         0.58159813977079        0.642510736905203
        0.585254280630668        0.657491096051732
        0.588910421490545        0.672277493937613
        0.592566562350423        0.686893979238738
        0.596222703210301        0.701329844425839
        0.599878844070179        0.715585269837413
        0.603534984930056        0.729661312421923
        0.607191125789934        0.743559597075308
        0.610847266649812        0.757283781937967
         0.61450340750969        0.770834640368494
        0.618159548369567        0.784217536481215
        0.621815689229445        0.797435790559784
        0.625471830089323        0.810494302767506
        0.629127970949201        0.823392807010274
        0.632784111809078        0.836140425691473
        0.636440252668956        0.848738184286926
        0.640096393528834        0.861193608063158
        0.643752534388712        0.873507182684986
        0.647408675248589        0.885686597991848
        0.651064816108467        0.897732733052132
        0.654720956968345        0.909653886936927
        0.658377097828223         0.92144908269921
          0.6620332386881         0.93312665495683
        0.665689379547978        0.944690811468688
        0.669345520407856        0.956140994520121
        0.673001661267734        0.967485908632211
        0.676657802127612        0.978728341969507
        0.680313942987489         0.98987020659052
        0.683970083847367         1.00091818505428
        0.687626224707245         1.01187559925051
        0.691282365567123         1.02274350777086
           0.694938506427         1.03352741554296
        0.698594647286878         1.04423067295511
        0.702250788146756         1.05485637066549
        0.705906929006634         1.06540783439032
        0.709563069866511         1.07588868186493
        0.713219210726389          1.0863020713353
        0.716875351586267         1.09665208139118
        0.720531492446145         1.10693802909174
        0.724187633306022         1.11716839416673
          0.7278437741659         1.12734286947075
        0.731499915025778         1.13746470691815
        0.735156055885656          1.1475347886007
        0.738812196745534         1.15755968516904
        0.742468337605411         1.16753940700257
        0.746124478465289          1.1774779667951
        0.749780619325167         1.18738009659853
        0.753436760185045         1.19724005185474
        0.757092901044922         1.20706886605846
          0.7607490419048         1.21686614626455
        0.764405182764678         1.22663338082906
        0.768061323624556         1.23637376303782
        0.771717464484433         1.24608819692437
        0.775373605344311         1.25577856627781
        0.779029746204189         1.26544630127275
        0.782685887064067         1.27509765452125
        0.786342027923944         1.28473685508365
        0.789998168783822         1.29435116657335
          0.7936543096437         1.30396292742323
        0.797310450503578         1.31356503890057
        0.800966591363455         1.32313797712136
        0.804622732223333         1.33271277387923
        0.808278873083211         1.34227668959127
        0.811935013943089         1.35183476990645
        0.815591154802967         1.36138458340038
        0.819247295662844         1.37092897473969
        0.822903436522722         1.38048527000327
          0.8265595773826          1.3899849257838
        0.830215718242478         1.39947055828623
        0.833871859102355         1.40893602226996
        0.837527999962233         1.41843208272218
        0.841184140822111          1.4279778051661
        0.844840281681989          1.4375132154092
        0.848496422541866         1.44710618682348
        0.852152563401744         1.45673325540639
        0.855808704261622          1.4664938511116
          0.8594648451215         1.47610317637621
        0.863120985981377         1.48584061919662
        0.866777126841255          1.4956201742822
        0.870433267701133         1.50545665812529
        0.874089408561011         1.51532026111061
        0.877745549420889         1.52523043971499
        0.881401690280766         1.53518762921557
        0.885057831140644         1.54519100882598
        0.888713972000522         1.55523672119714
          0.8923701128604         1.56532967230229
        0.896026253720277         1.57546971205949
        0.899682394580155         1.58565956666943
        0.903338535440033         1.59590321785433
        0.906994676299911          1.6061997887763
        0.910650817159788         1.61654851475071
        0.914306958019666         1.62693754860671
        0.917963098879544         1.63738794761205
        0.921619239739422          1.6478871645139
        0.925275380599299         1.65848831122387
        0.928931521459177         1.66905693367813
        0.932587662319055         1.67973134432036
        0.936243803178933         1.69046900997656
         0.93989994403881         1.70125218399037
        0.943556084898688         1.71209769912834
        0.947212225758566         1.72298061089002
        0.950868366618444         1.73395035852432
        0.954524507478322         1.74498344627548
        0.958180648338199         1.75606633231118
        0.961836789198077          1.7672358781714
        0.965492930057955         1.77844196594383
        0.969149070917833         1.78971351958817
         0.97280521177771          1.8009878773045
        0.976461352637588         1.81237711825901
        0.980117493497466         1.82383139535998
        0.983773634357344         1.83532962667486
        0.987429775217221         1.84689860715633
        0.991085916077099          1.8585284239629
        0.994742056936977         1.87022269992179
        0.998398197796855         1.88198210063474
         1.00205433865673         1.89380210070617
         1.00571047951661         1.90569025433783
         1.00936662037649          1.9176375503068
         1.01302276123637         1.92966703852947
         1.01667890209624         1.94175792380299
         1.02033504295612         1.95390912039026
           1.023991183816         1.96611681167871
         1.02764732467588         1.97839557953487
         1.03130346553575         1.99076516550313
         1.03495960639563         2.00318181558385
         1.03861574725551         2.01568139081213
         1.04227188811539         2.02823270618775
         1.04592802897527         2.04085621967238
         1.04958416983514         2.05354001047328
         1.05324031069502         2.06629315292533
          1.0568964515549         2.07912961342738
         1.06055259241478         2.09203449189528
         1.06420873327465         2.10500996961543
         1.06786487413453         2.11805435166844
         1.07152101499441         2.13117334756843
         1.07517715585429         2.14437068817331
         1.07883329671417          2.1576281222562
         1.08248943757404         2.17096382290041
         1.08614557843392         2.18437322701375
          1.0898017192938         2.19785523067756
         1.09345786015368         2.21140126848898
         1.09711400101355         2.22504832959388
         1.10077014187343         2.23875867006062
         1.10442628273331         2.25253474261105
         1.10808242359319         2.26638880035747
         1.11173856445307         2.28031738842066
         1.11539470531294          2.2943291967976
         1.11905084617282           2.308412949048
          1.1227069870327         2.32257315951276
         1.12636312789258         2.33681438850541
         1.13001926875245         2.35112932658867
         1.13367540961233         2.36552529543414
         1.13733155047221         2.38000395963321
         1.14098769133209          2.3945566183338
         1.14464383219197           2.409204264644
         1.14829997305184         2.42390548030825
         1.15195611391172          2.4387005889155
          1.1556122547716         2.45357409016829
         1.15926839563148         2.46852759801667
         1.16292453649135         2.48356706653637
         1.16658067735123          2.4986958039708
         1.17023681821111         2.51389779674615
         1.17389295907099         2.52920211714969
         1.17754909993086          2.5445208178239
         1.18120524079074         2.55997053764387
         1.18486138165062         2.57550736958258
          1.1885175225105         2.59112009077712
         1.19217366337038         2.60681828538741
         1.19582980423025         2.62260494454277
         1.19948594509013         2.63846697628809
         1.20314208595001         2.65442473426927
         1.20679822680989         2.67046153397691
         1.21045436766976         2.68658490556134
         1.21411050852964         2.70279497165838
