            sqrt(s) [GeV]               sigma [mb]
        0.706392814990235         2.25240412267941
        0.708900752692902         2.05706823730394
         0.71140869039557         1.98440126277113
        0.713916628098237         1.93175591109431
        0.716424565800905         1.88941686776616
        0.718932503503572         1.85363619846682
         0.72144044120624         1.82249856252967
        0.723948378908907         1.79486963949451
        0.726456316611575         1.77001261205726
        0.728964254314242         1.74741701307733
        0.731472192016909         1.72671208663533
        0.733980129719577         1.70761864811055
        0.736488067422244         1.68992006275699
        0.738996005124912         1.67344456718808
        0.741503942827579         1.65805309608975
        0.744011880530247         1.64363123526471
        0.746519818232914         1.63008351847144
        0.749027755935582         1.61732931431923
        0.751535693638249         1.60529979311932
        0.754043631340917         1.59393564646836
        0.756551569043584         1.58318534327071
        0.759059506746252         1.57300377577086
        0.761567444448919         1.56335119408914
        0.764075382151587         1.55419235743086
        0.766583319854254         1.54549585074989
        0.769091257556922         1.53723352894717
        0.771599195259589         1.52938006034571
        0.774107132962257         1.52191254961316
        0.776615070664924         1.51481022286102
        0.779123008367592         1.50805416304726
        0.781630946070259          1.5016270868938
        0.784138883772927         1.49551315426896
        0.786646821475594         1.48969780629527
        0.789154759178262         1.48416766540498
        0.791662696880929         1.47891025473946
        0.794170634583597         1.47391413283543
        0.796678572286264         1.46916864287729
        0.799186509988932         1.46466387287071
        0.801694447691599         1.46039058522449
        0.804202385394267         1.45634015481915
        0.806710323096934         1.45250451424763
        0.809218260799602         1.44887610527038
        0.811726198502269         1.44544783545502
        0.814234136204937         1.44221303963752
        0.816742073907604         1.43916544513499
        0.819250011610272         1.43629914056213
        0.821757949312939         1.43360854833073
        0.824265887015607         1.43108839883317
        0.826773824718274         1.42873370799586
        0.829281762420942         1.42653975641932
        0.831789700123609         1.42450207054901
        0.834297637826277         1.42261640580611
        0.836805575528944         1.42087873071662
        0.839313513231612          1.4192852125652
        0.841821450934279         1.41783220479904
        0.844329388636947         1.41651623471292
        0.846837326339614          1.4153339924101
        0.849345264042282         1.41428232108515
        0.851853201744949         1.41335820728822
        0.854361139447616         1.41255877236601
        0.856869077150284         1.41188126524754
        0.859377014852951         1.41132305376646
        0.861884952555619         1.41088161916795
        0.864392890258286          1.4105545490239
        0.866900827960954         1.41033953160917
        0.869408765663621         1.41023435057232
        0.871916703366289         1.41023687956319
        0.874424641068956         1.41034507773129
        0.876932578771624         1.41055698528469
        0.879440516474291         1.41087071935187
        0.881948454176959         1.41128446998825
        0.884456391879626          1.4117964966894
        0.886964329582294         1.41240512546563
        0.889472267284961         1.41310874443921
        0.891980204987629         1.41390580213208
        0.894488142690296          1.4147948043183
        0.896996080392964         1.41577431083635
        0.899504018095631         1.41684293378504
        0.902011955798299         1.41799933471626
        0.904519893500966         1.41924222371637
        0.907027831203634         1.42057035451013
        0.909535768906301         1.42198252555269
        0.912043706608969         1.42347757669946
        0.914551644311636         1.42505438735881
        0.917059582014304         1.42671187548278
        0.919567519716971         1.42844899554312
        0.922075457419639         1.43026473705672
        0.924583395122306         1.43215812354237
        0.927091332824974         1.43412821074161
        0.929599270527641         1.43617408563406
        0.932107208230309         1.43829486515393
        0.934615145932976         1.44048969503604
        0.937123083635644          1.4427577487539
        0.939631021338311         1.44509822642187
        0.942138959040979         1.44751035393576
        0.944646896743646         1.44999338185243
        0.947154834446313         1.45254658477349
        0.949662772148981         1.45516926012857
        0.952170709851649         1.45786072763392
        0.954678647554316         1.46062032855423
        0.957186585256983         1.46344742462186
        0.959694522959651         1.46634139762628
        0.962202460662318         1.46930164886121
        0.964710398364986         1.47232759798708
        0.967218336067653         1.47541868279242
        0.969726273770321            1.47857435859
        0.972234211472988         1.48179409757165
        0.974742149175656         1.48507738812153
        0.977250086878323         1.48842373451227
        0.979758024580991         1.49183265629901
        0.982265962283658         1.49530368803439
        0.984773899986326         1.49883637831789
        0.987281837688993           1.502430289937
        0.989789775391661         1.50608499905491
        0.992297713094328         1.50980009497834
        0.994805650796996         1.51357517976469
        0.997313588499663         1.51740986763667
        0.999821526202331         1.52130378490453
           1.002329463905         1.52525656942747
         1.00483740160767         1.52926787038743
         1.00734533931033         1.53333734797786
           1.009853277013         1.53746467283364
         1.01236121471567         1.54164952610071
         1.01486915241834         1.54589159891154
           1.017377090121         1.55019059216306
         1.01988502782367         1.55454621637171
         1.02239296552634         1.55895819110708
         1.02490090322901         1.56342624503847
         1.02740884093167         1.56795011558555
         1.02991677863434           1.572529548662
         1.03242471633701         1.57716429822852
         1.03493265403968         1.58185412739732
         1.03744059174234         1.58659880547552
         1.03994852944501         1.59139811055254
         1.04245646714768          1.5962518279038
         1.04496440485035         1.60115975004928
         1.04747234255301         1.60612167668321
         1.04998028025568         1.61113741429802
         1.05248821795835         1.61620677615499
         1.05499615566102         1.62132958211329
         1.05750409336368         1.62650565840002
         1.06001203106635          1.6317348375228
         1.06251996876902         1.63701695811056
         1.06502790647169         1.64235186464328
         1.06753584417435         1.64773940747332
         1.07004378187702         1.65317944261201
         1.07255171957969         1.65867183158619
         1.07505965728236         1.66421644136998
         1.07756759498502         1.66981314417813
         1.08007553268769         1.67546181730753
         1.08258347039036           1.681162343179
         1.08509140809303         1.68691460908499
         1.08759934579569         1.69271850716537
         1.09010728349836         1.69857393417906
         1.09261522120103         1.70448079148836
          1.0951231589037         1.71043898493901
         1.09763109660636         1.71644842478771
         1.10013903430903         1.72250902552023
          1.1026469720117         1.72862070581757
         1.10515490971437         1.73478338847131
         1.10766284741703         1.74099700024144
          1.1101707851197         1.74726147181914
         1.11267872282237         1.75357673770722
         1.11518666052504         1.75994273615998
          1.1176945982277         1.76635940905737
         1.12020253593037         1.77282670190573
         1.12271047363304         1.77934456367138
         1.12521841133571          1.7859129467493
         1.12772634903837          1.7925318069134
         1.13023428674104         1.79920110317219
         1.13274222444371         1.80592079775455
         1.13525016214638         1.81269085605002
         1.13775809984904         1.81951124649601
         1.14026603755171         1.82638194053034
         1.14277397525438         1.83330291253159
         1.14528191295705         1.84027413977032
         1.14778985065971         1.84729560232242
         1.15029778836238         1.85436722991786
         1.15280572606505         1.86148911437474
         1.15531366376772         1.86866119066498
         1.15782160147038         1.87588344953007
         1.16032953917305         1.88315588426155
         1.16283747687572         1.89047849063309
         1.16534541457839         1.89785126677661
         1.16785335228105          1.9052742132455
         1.17036128998372         1.91274733290146
         1.17286922768639         1.92027063084555
         1.17537716538906         1.92784411447123
         1.17788510309172         1.93546779329794
         1.18039304079439         1.94314167895196
         1.18290097849706         1.95086578515473
         1.18540891619972         1.95864012768401
         1.18791685390239         1.96646472428849
         1.19042479160506         1.97433959466684
         1.19293272930773         1.98226476044416
         1.19544066701039         1.99024024507725
         1.19794860471306         1.99826607387119
         1.20045654241573         2.00634227387865
          1.2029644801184         2.01446887393055
         1.20547241782106         2.02264590454602
