            sqrt(s) [GeV]               sigma [mb]
       0.0458541178888134       0.0413194408173888
       0.0516813455266639       0.0466458964389681
       0.0575085731645144       0.0564246928676052
       0.0633358008023649       0.0692816155316742
       0.0691630284402154       0.0848960897711057
       0.0749902560780659        0.103141842112724
       0.0808174837159164        0.123997359694601
       0.0866447113537669        0.147508483973507
       0.0924719389916174         0.17376977435156
       0.0982991666294679           0.202914758904
        0.104126394267318        0.235110974876389
        0.109953621905169        0.270557831327487
        0.115780849543019        0.309486273248403
         0.12160807718087         0.35215969361318
         0.12743530481872        0.398875787669991
        0.133262532456571        0.449969182245122
        0.139089760094421         0.50581475316224
        0.144916987732272        0.566831592079934
        0.150744215370122        0.633487612249189
        0.156571443007973        0.706304797840466
        0.162398670645823        0.785865106269025
        0.168225898283674        0.872817027773811
        0.174053125921524        0.967882790135631
        0.179880353559375         1.07186616594191
        0.185707581197225         1.18566079054547
        0.191534808835076         1.31025882381224
        0.197362036472926         1.44675967874517
        0.203189264110777         1.59637838220152
        0.209016491748627         1.76045291063029
        0.214843719386478         1.94044953620642
        0.220670947024328         2.13796479998605
        0.226498174662179         2.35472216981192
        0.232325402300029         2.59256071112834
         0.23815262993788         2.85341217422146
         0.24397985757573         3.13926177516536
        0.249807085213581          3.4520866544942
        0.255634312851432         3.79376464833903
        0.261461540489282         4.16594484607841
        0.267288768127133          4.5698708872709
        0.273115995764983         5.00614881376032
        0.278943223402834         5.47445464502698
        0.284770451040684         5.97318413135166
        0.290597678678535         6.49905991765285
        0.296424906316385         7.04673068292562
        0.302252133954236         7.60842214357495
        0.308079361592086         8.17372731695828
        0.313906589229937         8.72964455073855
        0.319733816867787         9.26097303247708
        0.325561044505638         9.75114157426722
        0.331388272143488         10.1834682390842
        0.337215499781339          10.542733329173
        0.343042727419189         10.8168275494915
         0.34886995505704         10.9981600109484
         0.35469718269489         11.0845224955363
        0.360524410332741         11.0792198298184
        0.366351637970591         10.9904565017906
        0.372178865608442         10.8301483859184
        0.378006093246292         10.6124399267422
        0.383833320884143         10.3522219117191
        0.389660548521993         10.0638782646802
        0.395487776159844         9.76038456013421
        0.401315003797694         9.45277948519954
        0.407142231435545         9.14995965139449
        0.412969459073395         8.85871426409069
        0.418796686711246         8.58391192948638
        0.424623914349096         8.32876522835769
        0.430451141986947         8.09511878435047
        0.436278369624797          7.8837262933004
        0.442105597262648          7.6944979142617
        0.447932824900498          7.5267106641869
        0.453760052538349         7.37918148898006
        0.459587280176199         7.25040649918184
         0.46541450781405         7.13867148009064
          0.4712417354519         7.04213905433739
        0.477068963089751         6.95891739983658
        0.482896190727601         6.88711461331368
        0.488723418365452         6.82488191034221
        0.494550646003302         6.77044801135277
        0.500377873641153         6.72214635268403
        0.506205101279003         6.67843621043037
        0.512032328916854         6.63791843747663
        0.517859556554704         6.59934627369718
        0.523686784192555          6.5616315710676
        0.529514011830405         6.52384675210026
        0.535341239468256          6.4852228578804
        0.541168467106106          6.4451441130578
        0.546995694743957         6.40313951368165
        0.552822922381807         6.35887201135683
        0.558650150019658         6.31212590961362
        0.564477377657508         6.26279310183298
        0.570304605295359         6.21085876217588
        0.576131832933209         6.15638706205561
         0.58195906057106          6.0995074283732
         0.58778628820891         6.04040180823308
        0.593613515846761         5.97929337190686
        0.599440743484611         5.91643711268595
        0.605267971122462         5.85211295065089
        0.611095198760312         5.78662236462928
        0.616922426398163         5.72029063265066
        0.622749654036013          5.6534794733973
        0.628576881673864         5.58662247821109
        0.634404109311714         5.52032008327607
        0.640231336949565         5.45562600170584
        0.646058564587415         5.39515991705226
        0.651885792225266         5.35028245598328
        0.657713019863116         5.41618904018018
        0.663540247500967         5.10515619440166
        0.669367475138817         5.06991742021035
        0.675194702776668         5.01401971901576
        0.681021930414518         4.95410509388602
        0.686849158052369          4.8933382257395
        0.692676385690219          4.8327935897583
         0.69850361332807          4.7729663569606
         0.70433084096592         4.71417638676523
        0.710158068603771         4.65560855889398
        0.715985296241621         4.59844361088834
        0.721812523879472         4.54279016107347
        0.727639751517322         4.48856579546994
        0.733466979155173         4.43575095088764
        0.739294206793023         4.38433791325333
        0.745121434430874         4.33432039307948
        0.750948662068724         4.28569048360426
        0.756775889706575         4.23843776986234
        0.762603117344425         4.19254920636782
        0.768430344982276         4.14800929533621
        0.774257572620126         4.10480038019794
        0.780084800257977         4.06290297465314
        0.785912027895827         4.02229608783478
        0.791739255533678         3.98295752639343
        0.797566483171528         3.94486416028127
        0.803393710809379         3.90799214431969
        0.809220938447229         3.87231708993874
         0.81504816608508         3.83781418606414
         0.82087539372293         3.80445827420838
        0.826702621360781         3.77222388964906
        0.832529848998631         3.74108528732616
        0.838357076636482         3.71101647348785
        0.844184304274332         3.68199126144475
        0.850011531912183         3.65398335989169
        0.855838759550033         3.62696649183213
        0.861665987187884         3.60091453144875
        0.867493214825734         3.57580164126827
        0.873320442463585         3.55160239328666
        0.879147670101435         3.52829186264948
        0.884974897739286         3.50584568977777
        0.890802125377136          3.4842401125877
        0.896629353014987         3.46345197394723
        0.902456580652837         3.44345871126383
        0.908283808290688         3.42423833398428
        0.914111035928538         3.40576939457342
        0.919938263566389          3.3880309559191
        0.925765491204239         3.37100255763831
         0.93159271884209         3.35466418223179
         0.93741994647994         3.33899622141758
        0.943247174117791         3.32397944280417
        0.949074401755641         3.30959495639898
        0.954901629393492         3.29582418062575
        0.960728857031342         3.28264880750217
        0.966556084669193         3.27005076623175
        0.972383312307043         3.25801218507699
        0.978210539944894         3.24651535078159
        0.984037767582744         3.23554266516315
        0.989864995220595         3.22507659830838
        0.995692222858445         3.21509963774819
          1.0015194504963         3.20559423291634
         1.00734667813415         3.19654273420125
           1.013173905772         3.18792732546666
         1.01900113340985          3.1797299490561
          1.0248283610477         3.17193222173758
         1.03065558868555         3.16451534020072
          1.0364828163234         3.15745997369289
         1.04231004396125         3.15074614154808
          1.0481372715991         3.14435307234962
         1.05396449923695         3.13825904085881
          1.0597917268748         3.13244117773852
         1.06561895451265          3.1268752457828
          1.0714461821505         3.12153537476103
         1.07727340978835         3.11639374429781
          1.0831006374262         3.11142020139624
         1.08892786506405           3.106581794677
          1.0947550927019         3.10184220128194
         1.10058232033975         3.09716101403743
         1.10640954797761         3.09249284427748
         1.11223677561546         3.08778617760206
         1.11806400325331          3.0829818938962
         1.12389123089116         3.07801132199895
         1.12971845852901         3.07279363695724
         1.13554568616686         3.06723230644988
         1.14137291380471         3.06121012583254
         1.14720014144256          3.0545820930412
         1.15302736908041         3.04716485795014
         1.15885459671826         3.03872050440302
         1.16468182435611         3.02893046385284
         1.17050905199396          3.0173511248382
         1.17633627963181          3.0033326496367
         1.18216350726966         2.98585556218875
         1.18799073490751         2.96315428035852
         1.19381796254536         2.93164940481448
         1.19964519018321         2.88151309008687
         1.20547241782106         2.61304531802118
