            sqrt(s) [GeV]               sigma [mb]
        0.569872378253043        0.498779312505103
        0.573063310957156        0.458228441450302
        0.576254243661269        0.444279000266377
        0.579445176365382        0.434622393998325
        0.582636109069494        0.427169377748589
        0.585827041773607        0.421118996438255
         0.58901797447772        0.416064152612042
        0.592208907181833        0.411764929083627
        0.595399839885946        0.408066179863164
        0.598590772590058        0.404860861315084
        0.601781705294171        0.402071522946328
        0.604972637998284        0.399640035809262
        0.608163570702397        0.397521500803235
         0.61135450340651        0.395680350197861
        0.614545436110623        0.394087925339765
        0.617736368814735        0.392720702815908
        0.620927301518848        0.391559109400878
        0.624118234222961        0.390586658127978
        0.627309166927074        0.389789312616253
        0.630500099631186        0.389155010042749
        0.633691032335299        0.388673297093552
        0.636881965039412        0.388335047759944
        0.640072897743525        0.388132241737214
        0.643263830447638        0.388057788143969
        0.646454763151751        0.388105383833436
        0.649645695855863        0.388269398304171
        0.652836628559976        0.388544779453124
        0.656027561264089        0.388926975507737
        0.659218493968202        0.389411870227159
        0.662409426672315        0.389995728346727
        0.665600359376427        0.390675149832474
         0.66879129208054        0.391447030611368
        0.671982224784653        0.392308529240784
        0.675173157488766        0.393257038405005
        0.678364090192879        0.394290159893405
        0.681555022896991        0.395405683666929
        0.684745955601104        0.396601568383821
        0.687936888305217         0.39787592577092
         0.69112782100933        0.399227006185723
        0.694318753713443         0.40065318525042
        0.697509686417556        0.402152953795846
        0.700700619121668         0.40372490705486
        0.703891551825781        0.405367736138625
        0.707082484529894        0.407080220173286
        0.710273417234007        0.408861219165817
        0.713464349938119        0.410709667867775
        0.716655282642232        0.412624569546908
        0.719846215346345        0.414604991387305
        0.723037148050458         0.41665005993019
        0.726228080754571        0.418758956213829
        0.729419013458684        0.420930912353975
        0.732609946162796        0.423165208158921
        0.735800878866909         0.42546116745159
        0.738991811571022        0.427818155821197
        0.742182744275135        0.430235577537459
        0.745373676979248        0.432712873151798
         0.74856460968336        0.435249517595184
        0.751755542387473        0.437845017207592
        0.754946475091586        0.440498909094822
        0.758137407795699        0.443210758582797
        0.761328340499812        0.445980157456384
        0.764519273203924        0.448806723272089
        0.767710205908037        0.451690096955854
         0.77090113861215        0.454629942383048
        0.774092071316263        0.457625944905356
        0.777283004020376        0.460677809349593
        0.780473936724489          0.4637852608181
        0.783664869428601        0.466948042481785
        0.786855802132714        0.470165914004672
        0.790046734836827        0.473438652667968
         0.79323766754094        0.476766051090174
        0.796428600245052        0.480147916384257
        0.799619532949165        0.483584070900488
        0.802810465653278        0.487074350268464
        0.806001398357391        0.490618602583097
        0.809192331061504        0.494216689441532
        0.812383263765617         0.49786848383396
        0.815574196469729        0.501573870136617
        0.818765129173842        0.505332743960793
        0.821956061877955        0.509145011327949
        0.825146994582068        0.513010588459515
        0.828337927286181        0.516929400844602
        0.831528859990293        0.520901384045601
        0.834719792694406        0.524926482172896
        0.837910725398519        0.529004647752619
        0.841101658102632        0.533135842203623
        0.844292590806745        0.537320034610168
        0.847483523510857        0.541557201775316
         0.85067445621497        0.545847328345188
        0.853865388919083        0.550190405753475
        0.857056321623196        0.554586432473546
        0.860247254327309        0.559035414051577
        0.863438187031422        0.563537362298151
        0.866629119735534        0.568092295486014
        0.869820052439647        0.572700237876673
         0.87301098514376        0.577361219810926
        0.876201917847873        0.582075277356386
        0.879392850551985        0.586842452320755
        0.882583783256098         0.59166279164852
        0.885774715960211        0.596536347916126
        0.888965648664324          0.6014631786091
        0.892156581368437        0.606443346416547
         0.89534751407255        0.611476918735887
        0.898538446776662        0.616563967849688
        0.901729379480775        0.621704570645496
        0.904920312184888          0.6268988085611
        0.908111244889001         0.63214676743749
        0.911302177593114        0.637448537421686
        0.914493110297226        0.642804212814059
        0.917684043001339        0.648213892265669
        0.920874975705452        0.653677678358866
        0.924065908409565        0.659195677382031
        0.927256841113678         0.66476799994208
        0.930447773817791        0.670394760178111
        0.933638706521903        0.676076076036264
        0.936829639226016        0.681812036115511
        0.940020571930129        0.687602831489367
        0.943211504634242        0.693448557910515
        0.946402437338354        0.699349347571414
        0.949593370042467        0.705305336106358
         0.95278430274658        0.711316662246276
        0.955975235450693        0.717383468448864
        0.959166168154806        0.723505900127287
        0.962357100858919        0.729684106004633
        0.965548033563031        0.735918237993921
        0.968738966267144        0.742208450875791
        0.971929898971257        0.748554902909727
         0.97512083167537        0.754957755111829
        0.978311764379483         0.76141717158616
        0.981502697083595         0.76793331944346
        0.984693629787708        0.774506368471409
        0.987884562491821        0.781136491740184
        0.991075495195934        0.787823864926934
        0.994266427900047        0.794568666613397
        0.997457360604159        0.801371078212332
         1.00064829330827        0.808231283882588
         1.00383922601238        0.815149470429224
          1.0070301587165        0.822125827652365
         1.01022109142061        0.829160515977683
         1.01341202412472        0.836253794285555
         1.01660295682884        0.843405828373029
         1.01979388953295        0.850616818434851
         1.02298482223706        0.857886967595574
         1.02617575494117        0.865216481388839
         1.02936668764529        0.872605567973494
          1.0325576203494        0.880054438112215
         1.03574855305351        0.887563305075172
         1.03893948575763        0.895132384637691
         1.04213041846174        0.902761895245234
         1.04532135116585        0.910452057744267
         1.04851228386996        0.918203095473848
         1.05170321657408        0.926015234345261
         1.05489414927819        0.933888702589195
          1.0580850819823        0.941823731093868
         1.06127601468642        0.949820553022288
         1.06446694739053        0.957879404123836
         1.06765788009464        0.966000522424758
         1.07084881279875        0.974184148521599
         1.07403974550287        0.982430525347181
         1.07723067820698        0.990739898260216
         1.08042161091109        0.999112514934737
         1.08361254361521         1.00754862556502
         1.08680347631932         1.01604848261992
         1.08999440902343         1.02461234096986
         1.09318534172754         1.03324045786306
         1.09637627443166         1.04193309289846
         1.09956720713577         1.05069042625366
         1.10275813983988         1.05951288606581
         1.10594907254399         1.06840065682964
         1.10914000524811         1.07735400750326
         1.11233093795222          1.0863732093163
         1.11552187065633         1.09545853586815
         1.11871280336045         1.10461026304729
         1.12190373606456         1.11382866901759
         1.12509466876867         1.12311403426556
         1.12828560147278         1.13246664158745
          1.1314765341769         1.14188677603275
         1.13466746688101           1.151374724956
         1.13785839958512         1.16093077793402
         1.14104933228924         1.17055522684787
         1.14424026499335         1.18024836588333
         1.14743119769746         1.19001041639816
         1.15062213040157         1.19984182755151
         1.15381306310569         1.20974282476703
          1.1570039958098         1.21971371119162
         1.16019492851391          1.2297547920135
         1.16338586121803         1.23986637498929
         1.16657679392214          1.2500487698838
         1.16976772662625          1.2603022886995
         1.17295865933036         1.27062724564715
         1.17614959203448         1.28102395715515
         1.17934052473859         1.29149274183839
          1.1825314574427         1.30203392046933
         1.18572239014682         1.31264781605058
         1.18891332285093         1.32333475369031
         1.19210425555504         1.33409506074196
         1.19529518825915         1.34492906663301
         1.19848612096327         1.35583710296379
         1.20167705366738         1.36681950351174
         1.20486798637149         1.37787660414668
