            sqrt(s) [GeV]               sigma [mb]
       0.0458541178888169        0.044984507530881
       0.0516813455266674       0.0567168769786275
       0.0575085731645179       0.0712641875906447
       0.0633358008023683       0.0882710395328684
       0.0691630284402188        0.107786291123943
       0.0749902560780693        0.129923690383741
       0.0808174837159198         0.15483821356154
       0.0866447113537703         0.18271846345031
       0.0924719389916208        0.213784247031397
       0.0982991666294713        0.248286601545055
        0.104126394267322        0.286509257570958
        0.109953621905172        0.328771102538734
        0.115780849543023        0.375429451202527
        0.121608077180873          0.4268840478086
        0.127435304818724        0.483581789216841
        0.133262532456574        0.546022196601473
        0.139089760094425        0.614763687785701
        0.144916987732275        0.690430718855715
        0.150744215370126        0.773721874177216
        0.156571443007976        0.865418988952625
        0.162398670645827        0.966397386859358
        0.168225898283677         1.07763730481257
        0.174053125921528         1.20023655385172
        0.179880353559378         1.33542442207968
        0.185707581197229          1.4845767596052
        0.191534808835079         1.64923207596404
         0.19736203647293          1.8311083221271
         0.20318926411078         2.03211979331942
         0.20901649174863         2.25439325021455
        0.214843719386481         2.50028187990968
        0.220670947024331         2.77237505413974
        0.226498174662182         3.07350094610972
        0.232325402300032            3.40671786966
        0.238152629937883         3.77528866614166
        0.243979857575733         4.18263054184812
        0.249807085213584         4.63223050480403
        0.255634312851434         5.12751409269293
        0.261461540489285         5.67165282135002
        0.267288768127135         6.26729439818735
        0.273115995764986         6.91620047119607
        0.278943223402836         7.61878135110403
        0.284770451040687         8.37352817852339
        0.290597678678537         9.17636319740584
        0.296424906316388         10.0199600493733
        0.302252133954238         10.8931277683753
        0.308079361592089         11.7803984064318
        0.313906589229939         12.6619950467752
         0.31973381686779         13.5143620899829
         0.32556104450564         14.3113880240672
        0.331388272143491         15.0263271712786
        0.337215499781341         15.6342433899101
        0.343042727419192         16.1146059467813
        0.348869955057042         16.4535446330262
        0.354697182694893         16.6452886541678
        0.360524410332743         16.6924896778537
        0.366351637970594         16.6054069079049
        0.372178865608444         16.4002045315956
        0.378006093246295         16.0967802106552
        0.383833320884145          15.716565605741
        0.389660548521996         15.2806413962378
        0.395487776159846         14.8083539319194
        0.401315003797697          14.316471976677
        0.407142231435547         13.8188178905155
        0.412969459073397         13.3262567221978
        0.418796686711248          12.846918540666
        0.424623914349098          12.386546705592
        0.430451141986949         11.9488923252971
        0.436278369624799         11.5361027409028
         0.44210559726265         11.1490745225517
          0.4479328249005         10.7877577486559
        0.453760052538351         10.4514088121321
        0.459587280176201         10.1387949679243
        0.465414507814052         9.84835665235772
        0.471241735451902           9.578334474868
        0.477068963089753         9.32686750214325
        0.482896190727603         9.09206863619068
        0.488723418365454         8.87208187248427
        0.494550646003304         8.66512522305773
        0.500377873641155         8.46952220978367
        0.506205101279005         8.28372411731371
        0.512032328916856         8.10632465496016
        0.517859556554706         7.93606828697851
        0.523686784192557         7.77185323845409
        0.529514011830407          7.6127300267478
        0.535341239468258         7.45789628130722
        0.541168467106108         7.30668856653417
        0.546995694743959         7.15857189751121
        0.552822922381809         7.01312760531932
         0.55865015001966         6.87004017493505
         0.56447737765751         6.72908362351371
        0.570304605295361         6.59010791976352
        0.576131832933211         6.45302586585404
        0.581959060571062         6.31780077449835
        0.587786288208912         6.18443518730408
        0.593613515846763          6.0529607929959
        0.599440743484613         5.92342963015987
        0.605267971122464         5.79590659084095
        0.611095198760314         5.67046318995225
        0.616922426398165         5.54717252469702
        0.622749654036015         5.42610532089873
        0.628576881673865         5.30732694572081
        0.634404109311716         5.19089525999651
        0.640231336949566         5.07685918214053
        0.646058564587417         4.96525784189862
        0.651885792225267         4.85612021063398
        0.657713019863118         4.74946510667085
        0.663540247500968         4.64530148674455
        0.669367475138819         4.54362894712766
        0.675194702776669         4.44443837061093
         0.68102193041452         4.34771266675916
         0.68684915805237         4.25342756338761
        0.692676385690221         4.16155241608359
        0.698503613328071         4.07205101068686
        0.704330840965922         3.98488233979322
        0.710158068603772         3.90000134030414
        0.715985296241623         3.81735958273899
        0.721812523879473         3.73690590754366
        0.727639751517324         3.65858700525562
        0.733466979155174         3.58234794018082
        0.739294206793025         3.50813261877446
        0.745121434430875          3.4358842044675
        0.750948662068726         3.36554548215713
        0.756775889706576         3.29705917555016
        0.762603117344427         3.23036822100307
        0.768430344982277         3.16541600163964
        0.774257572620128         3.10214654535356
        0.780084800257978         3.04050469038791
        0.785912027895829         2.98043622188007
        0.791739255533679         2.92188798256961
         0.79756648317153         2.86480796074758
         0.80339371080938         2.80914535810376
        0.809220938447231         2.75485064007322
        0.815048166085081         2.70187557089715
        0.820875393722932         2.65017323545432
        0.826702621360782         2.59969804972438
        0.832529848998632         2.55040576149383
        0.838357076636483         2.50225344272198
        0.844184304274333         2.45519947489679
        0.850011531912184         2.40920352842504
        0.855838759550034          2.3642265370572
        0.861665987187885         2.32023066824804
        0.867493214825735         2.27717928999495
        0.873320442463586         2.23503693508499
        0.879147670101436         2.19376926292336
        0.884974897739287         2.15334301965198
        0.890802125377137         2.11372599684218
        0.896629353014988         2.07488698900994
        0.902456580652838         2.03679575029188
        0.908283808290689         1.99942295040801
        0.914111035928539         1.96274013005593
         0.91993826356639         1.92671965585286
         0.92576549120424         1.89133467482846
        0.931592718842091         1.85655906857271
        0.937419946479941         1.82236740684287
        0.943247174117792         1.78873490074786
        0.949074401755642         1.75563735526238
        0.954901629393493         1.72305112099148
        0.960728857031343         1.69095304498061
        0.966556084669194         1.65932042030341
        0.972383312307044         1.62813093422926
        0.978210539944895         1.59736261451108
        0.984037767582745         1.56699377346151
        0.989864995220596         1.53700294930433
        0.995692222858446         1.50736884425214
          1.0015194504963         1.47807025857073
         1.00734667813415          1.4490860198682
           1.013173905772         1.42039490658069
         1.01900113340985         1.39197556459065
          1.0248283610477         1.36380641537992
         1.03065558868555         1.33586555418365
          1.0364828163234          1.3081306359926
         1.04231004396125         1.28057874676794
          1.0481372715991         1.25318625680305
         1.05396449923695         1.22592865217083
          1.0597917268748         1.19878033933616
         1.06561895451265         1.17171441659678
          1.0714461821505         1.14470240426945
         1.07727340978835          1.1177139232077
          1.0831006374262         1.09071630802479
         1.08892786506405         1.06367413699897
          1.0947550927019         1.03654865467273
         1.10058232033975         1.00929705454673
         1.10640954797761        0.981871576909738
         1.11223677561546        0.954218359266457
         1.11806400325331        0.926275949914816
         1.12389123089116         0.89797335503608
         1.12971845852901        0.869227426215941
         1.13554568616686        0.839939294156623
         1.14137291380471        0.809989386312906
         1.14720014144256        0.779230276993636
         1.15302736908041        0.747476099857914
         1.15885459671826         0.71448627260689
         1.16468182435611        0.679939316902888
         1.17050905199396        0.643388304458452
         1.17633627963181        0.604179367103944
         1.18216350726966        0.561287647825798
         1.18799073490751        0.512939311308897
         1.19381796254536         0.45553932160827
         1.19964519018321        0.379216924659693
         1.20547241782106       0.0829826184348125
