            sqrt(s) [GeV]               sigma [mb]
        0.494363281578829         2.49230314667257
        0.497933171114148          2.4930398664014
        0.501503060649467         2.53077745431741
        0.505072950184786         2.57593612602241
        0.508642839720105         2.62575885575788
        0.512212729255423         2.67919257204565
        0.515782618790742         2.73570180478954
        0.519352508326061         2.79496783551728
         0.52292239786138         2.85677893622616
        0.526492287396699         2.92098135680564
        0.530062176932018         2.98745428813266
        0.533632066467337         3.05609574193282
        0.537201956002656         3.12681394113214
        0.540771845537974         3.19952172187114
        0.544341735073293         3.27413269174457
        0.547911624608612         3.35055847114442
        0.551481514143931         3.42870663956769
         0.55505140367925          3.5084791655369
        0.558621293214569         3.58977118827505
        0.562191182749888         3.67247007122049
        0.565761072285207         3.75645467968417
        0.569330961820525          3.8415948548457
        0.572900851355844         3.92775106915117
        0.576470740891163         4.01477425647701
        0.580040630426482         4.10250581510521
        0.583610519961801         4.19077778530533
         0.58718040949712         4.27941320357377
        0.590750299032439         4.36822663595849
        0.594320188567758         4.45702489290903
        0.597890078103076         4.54560792334792
        0.601459967638395         4.63376988638789
        0.605029857173714         4.72130039359479
        0.608599746709033         4.80798591029947
        0.612169636244352          4.8936113027805
        0.615739525779671         4.97796151153742
         0.61930941531499         5.06082332812789
        0.622879304850309         5.14198724580109
        0.626449194385627         5.22124935628732
        0.630019083920946          5.2984132555485
        0.633588973456265         5.37329192182446
        0.637158862991584         5.44570953070355
        0.640728752526903          5.5155031645079
        0.644298642062222         5.58252438231239
        0.647868531597541         5.64664083813153
        0.651438421132859         5.70773656561046
        0.655008310668178         5.76571427208185
        0.658578200203497         5.82049513171297
        0.662148089738816         5.87201942303546
        0.665717979274135         5.92024665798732
        0.669287868809454         5.96515542474463
        0.672857758344773         6.00674294863576
        0.676427647880092         6.04502438339277
         0.67999753741541         6.08003185157728
        0.683567426950729         6.11181325791487
        0.687137316486048         6.14043090601482
        0.690707206021367         6.16595995111255
        0.694277095556686         6.18848672594017
        0.697846985092005         6.20810697737387
        0.701416874627324         6.22492405338234
        0.704986764162643         6.23904707739797
        0.708556653697961         6.25058914864072
         0.71212654323328         6.25966560098468
        0.715696432768599         6.26639235300907
        0.719266322303918         6.27088437651283
        0.722836211839237         6.27325430580139
        0.726406101374556         6.27361120824028
        0.729975990909875         6.27205952881424
        0.733545880445194         6.26869821826683
        0.737115769980512         6.26362005053082
        0.740685659515831         6.25691112861611
         0.74425554905115          6.2486505754349
        0.747825438586469          6.2389104027194
        0.751395328121788         6.22775554576273
        0.754965217657107         6.21524405082554
        0.758535107192426         6.20142739898764
        0.762104996727744         6.18635094729214
        0.765674886263063         6.17005446872163
        0.769244775798382          6.1525727697342
        0.772814665333701         6.13393636494334
         0.77638455486902         6.11417218860438
        0.779954444404339         6.09330432288622
        0.783524333939658         6.07135472444313
        0.787094223474977         6.04834393204744
        0.790664113010295         6.02429174031347
        0.794234002545614         5.99921782576722
        0.797803892080933         5.97314231491972
        0.801373781616252         5.94608628546613
        0.804943671151571         5.91807219451266
         0.80851356068689         5.88912423009054
        0.812083450222209         5.85926858460767
        0.815653339757528         5.82853364989233
        0.819223229292846           5.796950137837
        0.822793118828165         5.76455112898268
        0.826363008363484         5.73137205539434
        0.829932897898803         5.69745062406053
        0.833502787434122         5.66282668775593
        0.837072676969441         5.62754207136906
         0.84064256650476         5.59164036136742
        0.844212456040079         5.55516666640295
        0.847782345575397         5.51816735660388
        0.851352235110716         5.48068978905962
        0.854922124646035         5.44278202609403
        0.858492014181354         5.40449255237099
        0.862061903716673         5.36586999640807
        0.865631793251992         5.32696286120552
        0.869201682787311         5.28781926768317
        0.872771572322629         5.24848671420495
        0.876341461857948         5.20901185459768
        0.879911351393267          5.1694402966316
        0.883481240928586         5.12981642158475
        0.887051130463905         5.09018322633701
        0.890621019999224         5.05058218700274
        0.894190909534543         5.01105290436506
        0.897760799069862         4.97163397267469
         0.90133068860518         4.93236146348374
        0.904900578140499         4.89326983424874
        0.908470467675818         4.85439165172453
        0.912040357211137         4.81575757220352
        0.915610246746456         4.77739633662746
        0.919180136281775         4.73933477909815
        0.922750025817094         4.70159784718907
        0.926319915352413         4.66420863263277
        0.929889804887731         4.62718841089326
         0.93345969442305         4.59055668831833
        0.937029583958369          4.5543312557333
        0.940599473493688          4.5185282469124
        0.944169363029007         4.48316220130662
        0.947739252564326         4.44824612976476
        0.951309142099645         4.41379158235095
        0.954879031634964         4.37980871761693
        0.958448921170282         4.34630637251115
        0.962018810705601         4.31329213221351
         0.96558870024092         4.28077239975463
        0.969158589776239         4.24875246437506
        0.972728479311558         4.21723656877907
        0.976298368846877         4.18622797460046
        0.979868258382196         4.15572902601289
        0.983438147917514         4.12574121116557
        0.987008037452833         4.09626522146316
        0.990577926988152         4.06730100813048
        0.994147816523471         4.03884783658691
         0.99771770605879         4.01090433811152
         1.00128759559411         3.98346855892521
         1.00485748512943         3.95653800676555
         1.00842737466475          3.9301096947861
         1.01199726420007         3.90418018301327
         1.01556715373538          3.8787456172199
          1.0191370432707         3.85380176550576
         1.02270693280602         3.82934405238766
         1.02627682234134         3.80536759067202
         1.02984671187666         3.78186721109985
         1.03341660141198         3.75883748976589
          1.0369864909473         3.73627277372304
         1.04055638048262          3.7141672043974
         1.04412627001794         3.69251473917952
         1.04769615955325         3.67130917135543
         1.05126604908857         3.65054414813183
         1.05483593862389         3.63021318706491
         1.05840582815921         3.61030969106825
         1.06197571769453         3.59082696178602
         1.06554560722985          3.5717582115101
         1.06911549676517         3.55309657392834
         1.07268538630049         3.53483511335212
         1.07625527583581          3.5169668328046
         1.07982516537112         3.49948468088718
         1.08339505490644         3.48238155748125
         1.08696494444176         3.46565031839448
         1.09053483397708         3.44928377879174
          1.0941047235124         3.43327471563344
         1.09767461304772         3.41761586909501
         1.10124450258304         3.40229994291366
         1.10481439211836         3.38731960372526
         1.10838428165368         3.37266747934911
         1.11195417118899         3.35833615607664
         1.11552406072431         3.34431817490328
         1.11909395025963         3.33060602654432
         1.12266383979495         3.31719214557965
         1.12623372933027         3.30406890313343
         1.12980361886559         3.29122859856702
         1.13337350840091         3.27866344962663
         1.13694339793623         3.26636558127992
         1.14051328747154         3.25432701307906
         1.14408317700686         3.24253964472991
         1.14765306654218         3.23099523984445
          1.1512229560775         3.21968540770592
         1.15479284561282         3.20860158267905
         1.15836273514814         3.19773500127399
         1.16193262468346         3.18707667600769
         1.16550251421878         3.17661736648252
          1.1690724037541         3.16634754635272
         1.17264229328941         3.15625736632731
         1.17621218282473         3.14633661226827
         1.17978207236005         3.13657465765722
         1.18335196189537         3.12696040971492
         1.18692185143069         3.11748224785254
         1.19049174096601         3.10812795366771
         1.19406163050133         3.09888463100737
         1.19763152003665         3.08973861628197
         1.20120140957197          3.0806753863144
         1.20477129910728         3.07167954338902
