            sqrt(s) [GeV]               sigma [mb]
       0.0677115312322396       0.0416394360055882
       0.0734340941641717       0.0525695799212604
       0.0791566570961038       0.0691105917521386
       0.0848792200280358       0.0901871098431115
       0.0906017829599679        0.115450563449254
          0.0963243458919        0.144835418866991
        0.102046908823832        0.178471235365759
        0.107769471755764        0.216644453844275
        0.113492034687696         0.25978334540822
        0.119214597619628        0.308456756468756
         0.12493716055156        0.363382641593736
        0.130659723483493        0.425444705722418
        0.136382286415425        0.495716715343102
        0.142104849347357        0.575494798224991
        0.147827412279289        0.666338592176265
        0.153549975211221        0.770122514469003
        0.159272538143153        0.889098738696024
        0.164995101075085         1.02597363840486
        0.170717664007017         1.18399939018845
        0.176440226938949         1.36708190147768
        0.182162789870881         1.57990486926776
        0.187885352802813         1.82806694392403
        0.193607915734745          2.1182236262498
        0.199330478666678         2.45821604967278
         0.20505304159861         2.85715283242557
        0.210775604530542         3.32538563341742
        0.216498167462474         3.87428069559084
        0.222220730394406         4.51563626257687
        0.227943293326338         5.26053516379352
         0.23366585625827         6.11737619128341
        0.239388419190202         7.08885269002094
        0.245110982122134         8.16784203822362
        0.250833545054066         9.33266043404482
        0.256556107985998         10.5429716979577
         0.26227867091793         11.7385752620666
        0.268001233849863           12.84361627151
        0.273723796781795         13.7774901554827
        0.279446359713727         14.4706048174411
        0.285168922645659          14.879734205626
        0.290891485577591         14.9966983848522
        0.296614048509523          14.846975597072
        0.302336611441455         14.4798012251744
        0.308059174373387         13.9547863814413
        0.313781737305319         13.3301526275636
        0.319504300237251         12.6553084569955
        0.325226863169183         11.9679031675781
        0.330949426101115         11.2940539721098
        0.336671989033048         10.6502035372089
         0.34239455196498         10.0454571036128
        0.348117114896912         9.48375741903141
        0.353839677828844         8.96564079835318
        0.359562240760776         8.48953843869842
        0.365284803692708         8.05268530012149
         0.37100736662464          7.6517263526709
        0.376729929556572         7.28310490371848
        0.382452492488504         6.94330110183818
        0.388175055420436         6.62897102895539
        0.393897618352368         6.33702185756407
          0.3996201812843          6.0646470173778
        0.405342744216233         5.80933720929752
        0.411065307148165         5.56887736425011
        0.416787870080097         5.34133579862575
        0.422510433012029         5.12504932760841
        0.428232995943961         4.91860636594799
        0.433955558875893          4.7208291079111
        0.439678121807825         4.53075516123606
        0.445400684739757         4.34761875398994
        0.451123247671689         4.17083143770482
        0.456845810603621         3.99996223771978
        0.462568373535553         3.83471725472474
        0.468290936467485         3.67491886026799
        0.474013499399418         3.52048473831317
         0.47973606233135         3.37140716486768
        0.485458625263282         3.22773297887059
        0.491181188195214         3.08954474280411
        0.496903751127146         2.95694356868326
        0.502626314059078         2.83003402599879
         0.50834887699101         2.70891142743068
        0.514071439922942         2.59365168323514
        0.519794002854874         2.48430375704222
        0.525516565786806         2.38088463715872
        0.531239128718738         2.28337661846735
         0.53696169165067          2.1917266105616
        0.542684254582603         2.10584712766435
        0.548406817514535          2.0256185959847
        0.554129380446467         1.95089261104962
        0.559851943378399         1.88149580508366
        0.565574506310331         1.81723402038188
        0.571297069242263         1.75789652776593
        0.577019632174195         1.70326007777228
        0.582742195106127         1.65309261553963
        0.588464758038059         1.60715651012467
        0.594187320969991         1.56521119286715
        0.599909883901923         1.52701504699648
        0.605632446833856         1.49232637461477
        0.611355009765788         1.46090311414455
         0.61707757269772         1.43250067182276
        0.622800135629652         1.40686659632687
        0.628522698561584         1.38372921239339
        0.634245261493516          1.3627733467691
        0.639967824425448         1.34358464007667
         0.64569038735738         1.32550471212734
        0.651412950289312          1.3071736317085
        0.657135513221244         1.28454472447651
        0.662858076153176         1.23487608623949
        0.668580639085108         1.48661144754503
        0.674303202017041         1.33981296317219
        0.680025764948973         1.31555440758686
        0.685748327880905          1.3047054346858
        0.691470890812837          1.2987266737593
        0.697193453744769         1.29547195501254
        0.702916016676701         1.29411418745091
        0.708638579608633         1.29424376173789
        0.714361142540565         1.29561960449805
        0.720083705472497         1.29808093653801
        0.725806268404429         1.30151031640672
        0.731528831336361         1.30581611259742
        0.737251394268293          1.3109232677876
        0.742973957200226         1.31676776070173
        0.748696520132158         1.32329197491858
         0.75441908306409         1.33043076160542
        0.760141645996022         1.33813631769508
        0.765864208927954         1.34651310542737
        0.771586771859886         1.35542058891524
        0.777309334791818         1.36482353302005
         0.78303189772375         1.37469344982805
        0.788754460655682         1.38500536086431
        0.794477023587614         1.39573686941942
        0.800199586519546         1.40686770546323
        0.805922149451478         1.41837943893987
        0.811644712383411         1.43025526969963
        0.817367275315343         1.44247986588272
        0.823089838247275         1.45503923416319
        0.828812401179207         1.46792061386327
        0.834534964111139         1.48111239120697
        0.840257527043071         1.49460402671522
        0.845980089975003         1.50838598989519
        0.851702652906935         1.52244969348209
        0.857425215838867         1.53678741942108
        0.863147778770799         1.55139223140642
        0.868870341702731         1.56625787588127
        0.874592904634663         1.58137867895297
        0.880315467566596          1.5967494488462
        0.886038030498528         1.61236539814317
         0.89176059343046         1.62822209055489
        0.897483156362392         1.64431541140231
        0.903205719294324         1.66064155730496
        0.908928282226256         1.67719703394284
        0.914650845158188         1.69397865646606
         0.92037340809012          1.7109835476884
        0.926095971022052         1.72820913085075
        0.931818533953984         1.74565311894372
        0.937541096885916         1.76331349713687
        0.943263659817848         1.78118850878368
        0.948986222749781         1.79927663507909
        0.954708785681713         1.81757657757944
        0.960431348613645         1.83608724069742
        0.966153911545577         1.85480771487502
        0.971876474477509         1.87373726287732
        0.977599037409441         1.89287530363352
        0.983321600341373         1.91222140125917
        0.989044163273305         1.93177525230968
        0.994766726205237         1.95153667558397
         1.00048928913717         1.97150560218049
          1.0062118520691         1.99168206651701
         1.01193441500103          2.0120661980675
         1.01765697793297         2.03265821364228
          1.0233795408649         2.05345841031245
         1.02910210379683         2.07446715874155
         1.03482466672876         2.09568489729247
         1.04054722966069         2.11711212539687
         1.04626979259263         2.13874939905712
         1.05199235552456         2.16059732495765
         1.05771491845649         2.18265655560454
         1.06343748138842         2.20492778457388
         1.06916004432035         2.22741174176378
         1.07488260725229         2.25010918864285
         1.08060517018422          2.2730209140332
         1.08632773311615         2.29614772894141
         1.09205029604808         2.31949046219097
         1.09777285898001         2.34304995522211
         1.10349542191195         2.36682705622793
         1.10921798484388         2.39082261499305
         1.11494054777581          2.4150374751557
         1.12066311070774         2.43947246624618
         1.12638567363968         2.46412839369626
         1.13210823657161         2.48900602593752
         1.13783079950354         2.51410607777355
         1.14355336243547         2.53942918697896
          1.1492759253674         2.56497588241613
         1.15499848829934         2.59074653500059
         1.16072105123127         2.61674128302152
          1.1664436141632         2.64295990993576
         1.17216617709513         2.66940163181708
         1.17788874002706         2.69606469830634
           1.183611302959         2.72294556392668
         1.18933386589093         2.75003690455235
         1.19505642882286          2.7773217254235
         1.20077899175479         2.80474728541485
         1.20650155468672         2.83068091281327
