            sqrt(s) [GeV]               sigma [mb]
        0.486538477413968          0.4417015249055
        0.490194618273846        0.392458455485449
        0.493850759133723        0.384814600993364
        0.497506899993601        0.383052573090411
        0.501163040853479        0.384278955079878
        0.504819181713357        0.387424822043124
        0.508475322573234         0.39196163995618
        0.512131463433112        0.397590536385695
         0.51578760429299        0.404132973252015
        0.519443745152868         0.41148388715271
        0.523099886012746        0.419589534888273
        0.526756026872623        0.428437446276521
        0.530412167732501        0.438054695849951
        0.534068308592379        0.448517116351955
        0.537724449452257        0.459992824600932
        0.541380590312134        0.473050505071995
        0.545036731172012        0.487510923630261
         0.54869287203189        0.502648099026248
        0.552349012891768        0.518152285447258
        0.556005153751645        0.533842130823999
        0.559661294611523        0.549600685095119
        0.563317435471401        0.565349219278665
        0.566973576331279        0.581033115476747
        0.570629717191157        0.596614328066532
        0.574285858051034        0.612066015206809
        0.577941998910912        0.627369130152185
         0.58159813977079        0.642510737013095
        0.585254280630668        0.657491096136056
        0.588910421490545         0.67227749403205
        0.592566562350423        0.686893979390482
        0.596222703210301        0.701329844524234
        0.599878844070179        0.715585270013905
        0.603534984930056        0.729661313147994
        0.607191125789934        0.743559597390176
        0.610847266649812        0.757283782321588
         0.61450340750969        0.770834640793039
        0.618159548369567        0.784217537040033
        0.621815689229445        0.797435790977101
        0.625471830089323        0.810494303151064
        0.629127970949201         0.82339280751056
        0.632784111809078          0.8361404260287
        0.636440252668956        0.848738184567494
        0.640096393528834        0.861193608492148
        0.643752534388712        0.873507183141184
        0.647408675248589        0.885686598296775
        0.651064816108467        0.897732733419399
        0.654720956968345        0.909653886941712
        0.658377097828223        0.921449082999862
          0.6620332386881        0.933126655174864
        0.665689379547978        0.944690811607038
        0.669345520407856        0.956140994768708
        0.673001661267734        0.967485908921016
        0.676657802127612        0.978728342291642
        0.680313942987489        0.989870206869004
        0.683970083847367         1.00091818534579
        0.687626224707245         1.01187559931435
        0.691282365567123         1.02274350796246
           0.694938506427         1.03352741573444
        0.698594647286878         1.04423067318592
        0.702250788146756         1.05485637084294
        0.705906929006634         1.06540783457316
        0.709563069866511         1.07588868206806
        0.713219210726389         1.08630207153112
        0.716875351586267         1.09665208187933
        0.720531492446145         1.10693802931392
        0.724187633306022         1.11716839435409
          0.7278437741659         1.12734286959536
        0.731499915025778         1.13746470704743
        0.735156055885656         1.14753478902791
        0.738812196745534         1.15755968527696
        0.742468337605411         1.16753940716955
        0.746124478465289         1.17747796687851
        0.749780619325167          1.1873800967469
        0.753436760185045         1.19724005202574
        0.757092901044922         1.20706886640273
          0.7607490419048         1.21686614637043
        0.764405182764678         1.22663338092571
        0.768061323624556         1.23637376313951
        0.771717464484433         1.24608819701177
        0.775373605344311          1.2557785663435
        0.779029746204189         1.26544630135552
        0.782685887064067         1.27509765460601
        0.786342027923944         1.28473685516632
        0.789998168783822         1.29435116667229
          0.7936543096437         1.30396292750237
        0.797310450503578         1.31356503890091
        0.800966591363455         1.32313797723954
        0.804622732223333          1.3327127739347
        0.808278873083211         1.34227668964279
        0.811935013943089         1.35183477001764
        0.815591154802967         1.36138458349929
        0.819247295662844         1.37092897473499
        0.822903436522722         1.38048527021864
          0.8265595773826         1.38998492585456
        0.830215718242478         1.39947055831664
        0.833871859102355          1.4089360223502
        0.837527999962233         1.41843208278458
        0.841184140822111         1.42797780533816
        0.844840281681989         1.43751321547617
        0.848496422541866         1.44710618688852
        0.852152563401744         1.45673325544559
        0.855808704261622         1.46649385112913
          0.8594648451215         1.47610317640082
        0.863120985981377          1.4858406192336
        0.866777126841255         1.49562017429674
        0.870433267701133         1.50545665815102
        0.874089408561011         1.51532026108283
        0.877745549420889         1.52523043962992
        0.881401690280766           1.535187629206
        0.885057831140644         1.54519100882863
        0.888713972000522         1.55523672120041
          0.8923701128604         1.56532967235976
        0.896026253720277         1.57546971206871
        0.899682394580155         1.58565956671509
        0.903338535440033         1.59590321790204
        0.906994676299911         1.60619978881874
        0.910650817159788         1.61654851477681
        0.914306958019666         1.62693754864281
        0.917963098879544         1.63738794765829
        0.921619239739422         1.64788716456561
        0.925275380599299         1.65848831137836
        0.928931521459177         1.66905693369688
        0.932587662319055         1.67973134436519
        0.936243803178933         1.69046901001467
         0.93989994403881         1.70125218397517
        0.943556084898688         1.71209769918388
        0.947212225758566         1.72298061092262
        0.950868366618444          1.7339503586684
        0.954524507478322          1.7449834463242
        0.958180648338199         1.75606633240589
        0.961836789198077         1.76723587806018
        0.965492930057955         1.77844196592854
        0.969149070917833         1.78971351972406
         0.97280521177771          1.8009878773213
        0.976461352637588         1.81237711831357
        0.980117493497466         1.82383139534097
        0.983773634357344         1.83532962676516
        0.987429775217221         1.84689860724905
        0.991085916077099         1.85852842403909
        0.994742056936977         1.87022270002059
        0.998398197796855         1.88198210071619
         1.00205433865673         1.89380210080947
         1.00571047951661         1.90569025442142
         1.00936662037649         1.91763755033362
         1.01302276123637         1.92966703863605
         1.01667890209624          1.9417579238889
         1.02033504295612          1.9539091204865
           1.023991183816         1.96611681176561
         1.02764732467588         1.97839557948196
         1.03130346553575         1.99076516560848
         1.03495960639563         2.00318181568484
         1.03861574725551         2.01568139093274
         1.04227188811539         2.02823270635006
         1.04592802897527         2.04085621978136
         1.04958416983514         2.05354001057856
         1.05324031069502         2.06629315299781
          1.0568964515549         2.07912961350696
         1.06055259241478         2.09203449197405
         1.06420873327465         2.10500996969963
         1.06786487413453          2.1180543517397
         1.07152101499441         2.13117334765064
         1.07517715585429          2.1443706882467
         1.07883329671417         2.15762812233659
         1.08248943757404         2.17096382296308
         1.08614557843392         2.18437322708931
          1.0898017192938         2.19785523077417
         1.09345786015368           2.211401268531
         1.09711400101355          2.2250483295981
         1.10077014187343         2.23875867015253
         1.10442628273331         2.25253474267303
         1.10808242359319         2.26638880036805
         1.11173856445307         2.28031738848245
         1.11539470531294         2.29432919683859
         1.11905084617282         2.30841294906466
          1.1227069870327         2.32257315956049
         1.12636312789258         2.33681438854326
         1.13001926875245          2.3511293266216
         1.13367540961233         2.36552529550991
         1.13733155047221         2.38000395966194
         1.14098769133209         2.39455661837035
         1.14464383219197         2.40920426468882
         1.14829997305184          2.4239054803346
         1.15195611391172         2.43870058896128
          1.1556122547716         2.45357409019957
         1.15926839563148         2.46852759802236
         1.16292453649135          2.4835670665572
         1.16658067735123         2.49869580400029
         1.17023681821111         2.51389779683161
         1.17389295907099          2.5292021173944
         1.17754909993086         2.54452081787575
         1.18120524079074         2.55997053759874
         1.18486138165062         2.57550736961358
          1.1885175225105         2.59112009078563
         1.19217366337038         2.60681828542393
         1.19582980423025         2.62260494457272
         1.19948594509013         2.63846697632136
         1.20314208595001         2.65442473429731
         1.20679822680989         2.67046153400165
         1.21045436766976         2.68658490555933
         1.21411050852964         2.70279497168533
