            sqrt(s) [GeV]               sigma [mb]
       0.0603194438613301        0.131285462377217
       0.0660771817105518        0.139769811302365
       0.0718349195597736        0.159973175432072
       0.0775926574089953         0.18692588465777
       0.0833503952582171        0.219971293872295
       0.0891081331074388        0.258938822687502
       0.0948658709566605        0.303906502613065
        0.100623608805882        0.355122730370068
        0.106381346655104        0.412973260891011
        0.112139084504326        0.477967444699404
        0.117896822353548        0.550735527539315
        0.123654560202769        0.632032783763954
        0.129412298051991        0.722749492913378
        0.135170035901213        0.823924556897932
        0.140927773750435        0.936764358066088
        0.146685511599656          1.0626654982071
        0.152443249448878         1.20324215385685
          0.1582009872981         1.36035820306396
        0.163958725147322         1.53616432343496
        0.169716462996543         1.73314007446796
        0.175474200845765         1.95414057856452
        0.181231938694987         2.20244669079439
        0.186989676544209          2.4818163204289
         0.19274741439343         2.79653257473725
        0.198505152242652         3.15144125679174
        0.204262890091874         3.55196544724714
        0.210020627941095         4.00407777160908
        0.215778365790317         4.51420076251578
        0.221536103639539         5.08899189374651
        0.227293841488761         5.73495252584218
        0.233051579337982         6.45778119150519
        0.238809317187204         7.26137734482687
        0.244567055036426         8.14640494047642
        0.250324792885648         9.10836935567461
        0.256082530734869         10.1352800978079
        0.261840268584091         11.2051995728483
        0.267598006433313         12.2843177681743
        0.273355744282535         13.3265586800051
        0.279113482131756         14.2758889883749
        0.284871219980978         15.0721262768096
          0.2906289578302         15.6599114277386
        0.296386695679422         15.9988786354208
        0.302144433528643         16.0718235420227
        0.307902171377865         15.8878758488931
        0.313659909227087         15.4795509925079
        0.319417647076309         14.8950532714921
         0.32517538492553         14.1888046566802
        0.330933122774752         13.4131244335517
        0.336690860623974         12.6127356916639
        0.342448598473196         11.8223298075586
        0.348206336322417         11.0664906871196
        0.353964074171639         10.3610003832444
        0.359721812020861         9.71469181003275
        0.365479549870083         9.13130824182341
        0.371237287719304          8.6110988701892
        0.376995025568526         8.15206347159278
        0.382752763417748         7.75086024640431
         0.38851050126697         7.40343302074967
        0.394268239116191          7.1054237739585
        0.400025976965413         6.85242977890916
        0.405783714814635         6.64015351064593
        0.411541452663857         6.46448156351073
        0.417299190513078         6.32151824896201
          0.4230569283623          6.2075927933044
        0.428814666211522         6.11925170037817
        0.434572404060744         6.05324523767712
        0.440330141909965         6.00651281332753
        0.446087879759187         5.97617086729258
        0.451845617608409         5.95950433469979
        0.457603355457631         5.95396295232039
        0.463361093306852         5.95716167621561
        0.469118831156074           5.966884796844
        0.474876569005296         5.98109253918077
        0.480634306854518         5.99792881718874
        0.486392044703739         6.01572898614398
        0.492149782552961         6.03302607534347
        0.497907520402183         6.04855470258812
        0.503665258251405          6.0612517722067
        0.509422996100626         6.07025337887214
        0.515180733949848         6.07488830583836
         0.52093847179907          6.0746674014162
        0.526696209648291         6.06927025659422
        0.532453947497513         6.05852909732371
        0.538211685346735         6.04241100693323
        0.543969423195957         6.02099910853866
        0.549727161045178         5.99447353715896
          0.5554848988944         5.96309274620023
        0.561242636743622         5.92717605842078
        0.567000374592844         5.88708736581604
        0.572758112442065         5.84322079987891
        0.578515850291287         5.79598836656629
        0.584273588140509         5.74580958355651
        0.590031325989731         5.69310334744699
        0.595789063838952         5.63828197377263
        0.601546801688174         5.58174754986953
        0.607304539537396         5.52389088821143
        0.613062277386618         5.46509375890883
        0.618820015235839         5.40573593862896
        0.624577753085061         5.34621057821216
        0.630335490934283         5.28695622364649
        0.636093228783505         5.22852712182963
        0.641850966632726         5.17176590074096
        0.647608704481948         5.11830642102064
         0.65336644233117         5.07248509484787
        0.659124180180392           5.052982323021
        0.664881918029613         3.41864296366833
        0.670639655878835         4.74707320529219
        0.676397393728057          4.7427607808906
        0.682155131577279         4.70357459425784
          0.6879128694265         4.65684966049222
        0.693670607275722         4.60788474626771
        0.699428345124944         4.55843380115674
        0.705186082974166         4.50925251784839
        0.710943820823387         4.46072263248681
        0.716701558672609          4.4130579184959
        0.722459296521831         4.36638649338881
        0.728217034371053         4.32078896539142
        0.733974772220274         4.27631952836235
        0.739732510069496         4.23302761220501
        0.745490247918718         4.19049481467726
        0.751247985767939         4.14891114288642
        0.757005723617161         4.10874083995212
        0.762763461466383            4.06982795165
        0.768521199315605         4.03211818953266
        0.774278937164827         3.99557655368145
        0.780036675014048         3.96017455865411
         0.78579441286327         3.92588641982501
        0.791552150712492         3.89268761740061
        0.797309888561713         3.86055432287811
        0.803067626410935         3.82946318692814
        0.808825364260157         3.79939129692889
        0.814583102109379         3.77031621275266
          0.8203408399586         3.74221603434866
        0.826098577807822         3.71506942513318
        0.831856315657044         3.68885567010332
        0.837614053506266         3.66355456201039
        0.843371791355487         3.63914626857089
        0.849129529204709         3.61561113572881
        0.854887267053931         3.59292941538411
        0.860645004903153          3.5710810556542
        0.866402742752374         3.55004556776323
        0.872160480601596         3.52980202633413
        0.877918218450818         3.51032919642819
         0.88367595630004         3.49160575993843
        0.889433694149261         3.47361056987192
        0.895191431998483         3.45632288430143
        0.900949169847705          3.4397225368601
        0.906706907696927         3.42379003422004
        0.912464645546148         3.40850658517577
         0.91822238339537         3.39385407995997
        0.923980121244592         3.37981503717602
        0.929737859093814          3.3663725355363
        0.935495596943035         3.35351014080308
        0.941253334792257         3.34121183621622
        0.947011072641479         3.32946195894547
        0.952768810490701         3.31824513906313
        0.958526548339922         3.30754624996678
        0.964284286189144         3.29735035804904
        0.970042024038366         3.28764267875893
        0.975799761887588         3.27840853288112
        0.981557499736809         3.26963330333679
        0.987315237586031         3.26130239472904
        0.993072975435253         3.25340117093219
        0.998830713284475         3.24591493979604
          1.0045884511337         3.23882886706814
         1.01034618898292         3.23212793766386
         1.01610392683214         3.22579688112816
         1.02186166468136         3.21982011628232
         1.02761940253058         3.21418165758163
         1.03337714037981          3.2088650327491
         1.03913487822903         3.20385318029568
         1.04489261607825         3.19912833294026
         1.05065035392747         3.19467188384985
         1.05640809177669         3.19046422995472
         1.06216582962591         3.18648459149811
         1.06792356747514         3.18271079608642
         1.07368130532436         3.17911902438382
         1.07943904317358         3.17568350511023
          1.0851967810228         3.17237614642408
         1.09095451887202         3.16916608680268
         1.09671225672124         3.16601914147642
         1.10246999457047         3.16289711481296
         1.10822773241969         3.15975693270398
         1.11398547026891          3.1565495365663
         1.11974320811813         3.15321845251202
         1.12550094596735          3.1496979099439
         1.13125868381657         3.14591032400514
          1.1370164216658         3.14176285913333
         1.14277415951502         3.13714262610248
         1.14853189736424         3.13190979122032
         1.15428963521346         3.12588737240299
         1.16004737306268         3.11884555608883
         1.16580511091191         3.11047647429236
         1.17156284876113         3.10035128777089
         1.17732058661035         3.08784170987419
         1.18307832445957         3.07196206713584
         1.18883606230879         3.05100549700618
         1.19459380015801         3.02151233667079
         1.20035153800724         2.97398627482263
         1.20610927585646         2.71708627488061
