            sqrt(s) [GeV]               sigma [mb]
       0.0603194438613301       0.0243236345166399
       0.0660771817105518       0.0310089759574448
       0.0718349195597736       0.0416921892583277
       0.0775926574089953       0.0554809114625791
       0.0833503952582171       0.0720276185475334
       0.0891081331074388       0.0911918258121839
       0.0948658709566605        0.112966220459002
        0.100623608805882        0.137441740310093
        0.106381346655104         0.16479040620895
        0.112139084504326        0.195258023363747
        0.117896822353548         0.22916313626265
        0.123654560202769        0.266900468098248
        0.129412298051991        0.308948004203283
        0.135170035901213        0.355877401042362
        0.140927773750435        0.408367726690033
        0.146685511599656        0.467222761000897
        0.152443249448878          0.5333922486583
          0.1582009872981        0.607997624326583
        0.163958725147322         0.69236281605435
        0.169716462996543        0.788050764782978
        0.175474200845765        0.896906237494673
        0.181231938694987         1.02110529220751
        0.186989676544209         1.16321126573094
         0.19274741439343         1.32623622486651
        0.198505152242652         1.51370517745161
        0.204262890091874         1.72971758288972
        0.210020627941095         1.97899626498887
        0.215778365790317         2.26690696771352
        0.221536103639539         2.59942166209172
        0.227293841488761         2.98298461269226
        0.233051579337982         3.42422229052205
        0.238809317187204         3.92941882609076
        0.244567055036426         4.50366481562564
        0.250324792885648         5.14959385074932
        0.256082530734869         5.86567364393016
        0.261840268584091         6.64415030447507
        0.267598006433313         7.46897896647635
        0.273355744282535         8.31438588668786
        0.279113482131756         9.14496780290279
        0.284871219980978         9.91819808235609
          0.2906289578302         10.5896275755084
        0.296386695679422         11.1199565864751
        0.302144433528643         11.4820116340069
        0.307902171377865         11.6652839237947
        0.313659909227087         11.6765240218821
        0.319417647076309         11.5365227371422
         0.32517538492553         11.2746277750154
        0.330933122774752         10.9229896144326
        0.336690860623974         10.5120203137927
        0.342448598473196         10.0676539932105
        0.348206336322417          9.6102660828716
        0.353964074171639         9.15475753558823
        0.359721812020861         8.71127622488817
        0.365479549870083         8.28617325503596
        0.371237287719304         7.88294891729378
        0.376995025568526         7.50306970592975
        0.382752763417748         7.14661950551848
         0.38851050126697         6.81279115579802
        0.394268239116191           6.500243292529
        0.400025976965413         6.20735127866028
        0.405783714814635         5.93237901408857
        0.411541452663857          5.6735935403968
        0.417299190513078         5.42933892122132
          0.4230569283623         5.19808226116481
        0.428814666211522           4.978440002478
        0.434572404060744         4.76919112525575
        0.440330141909965         4.56928100242686
        0.446087879759187         4.37781899576754
        0.451845617608409         4.19407116901624
        0.457603355457631         4.01744983843013
        0.463361093306852         3.84750042083442
        0.469118831156074         3.68388648284192
        0.474876569005296         3.52637347635655
        0.480634306854518         3.37481167913827
        0.486392044703739         3.22911901062869
        0.492149782552961         3.08926406494684
        0.497907520402183         2.95525006401288
        0.503665258251405         2.82710010770356
        0.509422996100626         2.70484400673138
        0.515180733949848         2.58850740460933
         0.52093847179907         2.47810262296169
        0.526696209648291         2.37362207951971
        0.532453947497513          2.2750336362622
        0.538211685346735         2.18227801399151
        0.543969423195957         2.09526791879297
        0.549727161045178         2.01388865577787
          0.5554848988944         1.93799979953562
        0.561242636743622         1.86743792716885
        0.567000374592844         1.80201961246423
        0.572758112442065         1.74154489008231
        0.578515850291287          1.6858007472821
        0.584273588140509         1.63456438854541
        0.590031325989731         1.58760623951101
        0.595789063838952         1.54469243708223
        0.601546801688174         1.50558665008065
        0.607304539537396         1.47005098023126
        0.613062277386618          1.4378455172273
        0.618820015235839          1.4087257171421
        0.624577753085061         1.38243583662836
        0.630335490934283         1.35869427796684
        0.636093228783505         1.33716004697677
        0.641850966632726         1.31734820187293
        0.647608704481948         1.29837714295081
         0.65336644233117         1.27797333148048
        0.659124180180392         1.24582838385181
        0.664881918029613         1.66377515077075
        0.670639655878835          1.3158682705974
        0.676397393728057         1.28740107913884
        0.682155131577279         1.27531852175452
          0.6879128694265         1.26833722425806
        0.693670607275722         1.26412248848972
        0.699428345124944          1.2618411523986
        0.705186082974166         1.26109299728503
        0.710943820823387         1.26164358497597
        0.716701558672609         1.26333502129119
        0.722459296521831         1.26604995972888
        0.728217034371053         1.26969484410832
        0.733974772220274         1.27419051502666
        0.739732510069496         1.27946267124055
        0.745490247918718          1.2853862508192
        0.751247985767939         1.29213760490217
        0.757005723617161         1.29953820616806
        0.762763461466383         1.30753659873873
        0.768521199315605         1.31609442510058
        0.774278937164827         1.32517844360644
        0.780036675014048         1.33475895046825
         0.78579441286327         1.34480910389169
        0.791552150712492          1.3553045122341
        0.797309888561713         1.36622294649907
        0.803067626410935         1.37754411518059
        0.808825364260157         1.38924948107707
        0.814583102109379         1.40132210828591
          0.8203408399586         1.41374653882649
        0.826098577807822         1.42650865473884
        0.831856315657044          1.4395956357035
        0.837614053506266         1.45299581917087
        0.843371791355487         1.46669862721969
        0.849129529204709          1.4806944974253
        0.854887267053931         1.49497476229934
        0.860645004903153         1.50953156003807
        0.866402742752374         1.52435773157817
        0.872160480601596         1.53944672916576
        0.877918218450818         1.55479253599272
         0.88367595630004         1.57038961217664
        0.889433694149261         1.58623285381982
        0.895191431998483         1.60231757016064
        0.900949169847705         1.61863946700305
        0.906706907696927         1.63519463453308
        0.912464645546148         1.65197953375808
         0.91822238339537         1.66899098160506
        0.923980121244592         1.68622613269518
        0.929737859093814         1.70368245953462
        0.935495596943035          1.7213577310756
        0.941253334792257         1.73924999223434
        0.947011072641479         1.75735754445858
        0.952768810490701         1.77567892323658
        0.958526548339922         1.79421288297632
        0.964284286189144         1.81295837760004
        0.970042024038366         1.83191454604816
        0.975799761887588         1.85108069752545
        0.981557499736809         1.87045629811742
        0.987315237586031         1.89004096235485
        0.993072975435253         1.90983442404904
        0.998830713284475         1.92983656208238
          1.0045884511337         1.95004735460411
         1.01034618898292         1.97046689039401
         1.01610392683214         1.99109534851089
         1.02186166468136         2.01193300711168
         1.02761940253058         2.03298022047377
         1.03337714037981          2.0542374198737
         1.03913487822903         2.07570510631892
         1.04489261607825         2.09738384435608
         1.05065035392747         2.11927425684699
         1.05640809177669         2.14137701856705
         1.06216582962591         2.16369285288816
         1.06792356747514         2.18622252530467
         1.07368130532436         2.20896683912462
         1.07943904317358         2.23192663074373
          1.0851967810228         2.25510276466517
         1.09095451887202         2.27849612864596
         1.09671225672124         2.30210762803137
         1.10246999457047         2.32593818112244
         1.10822773241969           2.349988712386
         1.11398547026891         2.37426014551774
         1.11974320811813         2.39875339556098
         1.12550094596735          2.4234693588096
         1.13125868381657         2.44840890006077
          1.1370164216658         2.47357283688867
         1.14277415951502         2.49896191651024
         1.14853189736424         2.52457678460296
         1.15428963521346         2.55041793825502
         1.16004737306268         2.57648565367071
         1.16580511091191         2.60277986831095
         1.17156284876113         2.62929997540882
         1.17732058661035         2.65604443930213
         1.18307832445957          2.6830099965217
         1.18883606230879         2.71018974418401
         1.19459380015801         2.73756746232359
         1.20035153800724         2.76509250122896
         1.20610927585646         2.79119833192938
