            sqrt(s) [GeV]               sigma [mb]
         0.49436328157883        0.147009293042436
        0.497933171114148          0.1374322019467
        0.501503060649467         0.13439417895289
        0.505072950184786        0.132421127234463
        0.508642839720105        0.131002642319427
        0.512212729255424        0.129943513665891
        0.515782618790743        0.129144708131856
        0.519352508326062        0.128547969703958
        0.522922397861381        0.128115682898171
        0.526492287396699        0.127821944183493
        0.530062176932018        0.127648036969987
        0.533632066467337        0.127579951373077
        0.537201956002656        0.127606885931038
        0.540771845537975        0.127720318842412
        0.544341735073294        0.127913396886139
        0.547911624608613        0.128180519923037
        0.551481514143932        0.128517049661139
         0.55505140367925        0.128919100131556
        0.558621293214569        0.129383383543172
        0.562191182749888        0.129907094625024
        0.565761072285207        0.130487822357872
        0.569330961820526        0.131123481554531
        0.572900851355845        0.131812259106645
        0.576470740891164        0.132552571214844
        0.580040630426482        0.133343029008964
        0.583610519961801        0.134182410577183
         0.58718040949712        0.135069638056905
        0.590750299032439        0.136003758703515
        0.594320188567758        0.136983929033623
        0.597890078103077        0.138009401632052
        0.601459967638396        0.139079513841575
        0.605029857173714         0.14019367832206
        0.608599746709033        0.141351374801431
        0.612169636244352        0.142552143113797
        0.615739525779671        0.143795577113794
         0.61930941531499        0.145081319399538
        0.622879304850309        0.146409056669274
        0.626449194385628        0.147778515803921
        0.630019083920947        0.149189460198568
        0.633588973456265        0.150641686683427
        0.637158862991584        0.152135022734912
        0.640728752526903         0.15366932401725
        0.644298642062222        0.155244472155849
        0.647868531597541        0.156860372786046
         0.65143842113286        0.158516953758102
        0.655008310668179        0.160214163582824
        0.658578200203498        0.161951969920719
        0.662148089738816        0.163730358364212
        0.665717979274135        0.165549331192596
        0.669287868809454        0.167408906331835
        0.672857758344773        0.169309116371285
        0.676427647880092        0.171250007636516
        0.679997537415411        0.173231639433555
         0.68356742695073        0.175254083239399
        0.687137316486049        0.177317422051139
        0.690707206021367        0.179421749736299
        0.694277095556686         0.18156717046161
        0.697846985092005         0.18375379811873
        0.701416874627324        0.185981755901735
        0.704986764162643        0.188251175735353
        0.708556653697962        0.190562197965772
        0.712126543233281        0.192914970875092
          0.7156964327686        0.195309650329605
        0.719266322303918        0.197746392687984
        0.722836211839237        0.200225381603394
        0.726406101374556        0.202746786989068
        0.729975990909875        0.205310791929062
        0.733545880445194        0.207917585550207
        0.737115769980513        0.210567362862669
        0.740685659515832        0.213260324507956
         0.74425554905115        0.215996676486153
        0.747825438586469        0.218776630042899
        0.751395328121788        0.221600401428447
        0.754965217657107        0.224468211707413
        0.758535107192426        0.227380286652725
        0.762104996727745        0.230336856512241
        0.765674886263064        0.233338155914612
        0.769244775798382         0.23638442371658
        0.772814665333701        0.239475902855611
         0.77638455486902        0.242612840245167
        0.779954444404339        0.245795486649265
        0.783524333939658        0.249024096571446
        0.787094223474977        0.252298928146946
        0.790664113010296        0.255620243064466
        0.794234002545615        0.258988306446293
        0.797803892080933        0.262403386776491
        0.801373781616252        0.265865755818335
        0.804943671151571        0.269375688528442
         0.80851356068689        0.272933462980268
        0.812083450222209         0.27653936034535
        0.815653339757528        0.280193645118903
        0.819223229292847        0.283896643590303
        0.822793118828166        0.287648626064123
        0.826363008363484        0.291449885285248
        0.829932897898803        0.295300716755683
        0.833502787434122        0.299201418697488
        0.837072676969441        0.303152292001183
         0.84064256650476        0.307153640179987
        0.844212456040079        0.311205769348376
        0.847782345575398        0.315308988160449
        0.851352235110717        0.319463607767664
        0.854922124646035        0.323669941846331
        0.858492014181354        0.327928306497565
        0.862061903716673        0.332239020245785
        0.865631793251992        0.336602385015662
        0.869201682787311         0.34101876218654
         0.87277157232263        0.345488458345347
        0.876341461857949        0.350011801478613
        0.879911351393267        0.354589121889937
        0.883481240928586        0.359220752183754
        0.887051130463905        0.363907027244675
        0.890621019999224        0.368648284218218
        0.894190909534543        0.373444862515445
        0.897760799069862        0.378297103793557
        0.901330688605181        0.383205351961722
          0.9049005781405        0.388169953134286
        0.908470467675818        0.393191255674048
        0.912040357211137        0.398269610159383
        0.915610246746456        0.403405369387896
        0.919180136281775        0.408598888375599
        0.922750025817094        0.413850524348487
        0.926319915352413        0.419160636756108
        0.929889804887732        0.424529587263545
         0.93345969442305        0.429957739754906
        0.937029583958369        0.435445460350057
        0.940599473493688        0.440993069197643
        0.944169363029007        0.446601033616786
        0.947739252564326         0.45226967789555
        0.951309142099645        0.457999377109626
        0.954879031634964        0.463790508601137
        0.958448921170283        0.469643451990193
        0.962018810705601        0.475558589160004
         0.96558870024092         0.48153630430546
        0.969158589776239        0.487576983919166
        0.972728479311558        0.493681016819708
        0.976298368846877        0.499848749861734
        0.979868258382196        0.506080665587074
        0.983438147917515        0.512377115136043
        0.987008037452834        0.518738496764729
        0.990577926988152        0.525165211126359
        0.994147816523471         0.53165766130861
         0.99771770605879        0.538216252823715
         1.00128759559411        0.544841393637817
         1.00485748512943        0.551533494210728
         1.00842737466475        0.558292967502093
         1.01199726420007        0.565120228984434
         1.01556715373538        0.572015696681532
          1.0191370432707        0.578979791179029
         1.02270693280602         0.58601293566281
         1.02627682234134        0.593115555925461
         1.02984671187666        0.600288080418012
         1.03341660141198        0.607530940210063
          1.0369864909473        0.614844569117611
         1.04055638048262        0.622229403661656
         1.04412627001794        0.629685883077258
         1.04769615955325         0.63721444939854
         1.05126604908857        0.644815547457469
         1.05483593862389        0.652489624900601
         1.05840582815921        0.660237132248977
         1.06197571769453        0.668058522899603
         1.06554560722985        0.675954253154509
         1.06911549676517        0.683924782272648
         1.07268538630049        0.691970410235619
         1.07625527583581        0.700091930779702
         1.07982516537112        0.708289645997399
         1.08339505490644        0.716564027220001
         1.08696494444176        0.724915548900644
         1.09053483397708        0.733344688609733
          1.0941047235124        0.741851927080026
         1.09767461304772        0.750437748262427
         1.10124450258304        0.759102639308532
         1.10481439211836        0.767847090628348
         1.10838428165368        0.776671595950327
         1.11195417118899        0.785576652334151
         1.11552406072431        0.794562760163669
         1.11909395025963        0.803630423273969
         1.12266383979495        0.812780148893089
         1.12623372933027        0.822012447704685
         1.12980361886559        0.831327833912889
         1.13337350840091        0.840726825256091
         1.13694339793623        0.850209943015638
         1.14051328747154        0.859777712088899
         1.14408317700686        0.869430661027685
         1.14765306654218        0.879169322028085
          1.1512229560775         0.88899423099684
         1.15479284561282        0.898905927591097
         1.15836273514814        0.908904955234974
         1.16193262468346        0.918991861171562
         1.16550251421878        0.929167196489894
          1.1690724037541        0.939431516155987
         1.17264229328941        0.949785379045377
         1.17621218282473        0.960229347973179
         1.17978207236005        0.970763989776499
         1.18335196189537        0.981389875282439
         1.18692185143069        0.992107579401745
         1.19049174096601         1.00291768108358
         1.19406163050133         1.01382076344849
         1.19763152003665         1.02481741376538
         1.20120140957197         1.03590822348103
         1.20477129910728         1.04709378827147
