            sqrt(s) [GeV]               sigma [mb]
       0.0458541178888134      0.00676890249677975
       0.0516813455266639      0.00626425295812579
       0.0575085731645144        0.006597904510646
       0.0633358008023649      0.00733003564465671
       0.0691630284402154      0.00834966655703936
       0.0749902560780659      0.00959476367131799
       0.0808174837159164       0.0110264795620409
       0.0866447113537669       0.0126189053876217
       0.0924719389916174       0.0143539641187919
       0.0982991666294679        0.016218573864999
        0.104126394267318       0.0182029718434159
        0.109953621905169       0.0202996763590829
        0.115780849543019       0.0225028198733404
         0.12160807718087         0.02480770716389
         0.12743530481872       0.0272105147095874
        0.133262532456571       0.0297080813863617
        0.139089760094421       0.0322977595632378
        0.144916987732272       0.0349773071650162
        0.150744215370122       0.0377448080083477
        0.156571443007973        0.040598612035194
        0.162398670645823       0.0435372897514136
        0.168225898283674       0.0465595969572338
        0.174053125921524       0.0496644474638647
        0.179880353559375       0.0528508905832344
        0.185707581197225       0.0561180940032616
        0.191534808835076       0.0594653292888612
        0.197362036472926       0.0628919600616179
        0.203189264110777       0.0663974322602815
        0.209016491748627       0.0699812656982413
        0.214843719386478       0.0736430474516231
        0.220670947024328       0.0773824254878797
        0.226498174662179       0.0811991038929619
        0.232325402300029       0.0850928380313496
         0.23815262993788       0.0890634311763027
         0.24397985757573        0.093110730279605
        0.249807085213581       0.0972346237584283
        0.255634312851432        0.101435038064258
        0.261461540489282        0.105711935930989
        0.267288768127133        0.110065314109131
        0.273115995764983        0.114495199484286
        0.278943223402834        0.119001651364458
        0.284770451040684        0.123584756008318
        0.290597678678535        0.128244626832807
        0.296424906316385         0.13298140233997
        0.302252133954236        0.137795246507645
        0.308079361592086        0.142686345032213
        0.313906589229937        0.147654906836398
        0.319733816867787        0.152701161645244
        0.325561044505638        0.157825359486937
        0.331388272143488        0.163027769203957
        0.337215499781339        0.168308678817714
        0.343042727419189        0.173668394558792
         0.34886995505704        0.179107239502424
         0.35469718269489        0.184625552911587
        0.360524410332741        0.190223691528822
        0.366351637970591        0.195902026183088
        0.372178865608442        0.201660944567731
        0.378006093246292        0.207500846466044
        0.383833320884143        0.213422147703663
        0.389660548521993        0.219425277371308
        0.395487776159844        0.225510679002233
        0.401315003797694         0.23167880767892
        0.407142231435545        0.237930131598036
        0.412969459073395        0.244265132573914
        0.418796686711246        0.250684303520032
        0.424623914349096        0.257188149840604
        0.430451141986947        0.263777188334455
        0.436278369624797        0.270451948135008
        0.442105597262648        0.277212969623958
        0.447932824900498        0.284060802644957
        0.453760052538349        0.290996011515679
        0.459587280176199        0.298019168280578
         0.46541450781405        0.305130857017887
          0.4712417354519         0.31233167274578
        0.477068963089751        0.319622220729124
        0.482896190727601        0.327003116798931
        0.488723418365452        0.334474987275265
        0.494550646003302        0.342038468389586
        0.500377873641153        0.349694207277437
        0.506205101279003        0.357442861272518
        0.512032328916854        0.365285097695968
        0.517859556554704        0.373221593944095
        0.523686784192555        0.381253037974491
        0.529514011830405        0.389380127888987
        0.535341239468256        0.397603571151405
        0.541168467106106        0.405924086470006
        0.546995694743957        0.414342401923857
        0.552822922381807        0.422859256635586
        0.558650150019658        0.431475399456355
        0.564477377657508        0.440191589308296
        0.570304605295359         0.44900859589053
        0.576131832933209        0.457927198618283
         0.58195906057106         0.46694818816283
         0.58778628820891        0.476072364626175
        0.593613515846761        0.485300539394991
        0.599440743484611        0.494633533959955
        0.605267971122462        0.504072180468822
        0.611095198760312        0.513617321778713
        0.616922426398163        0.523269811786887
        0.622749654036013        0.533030514669598
        0.628576881673864        0.542900305667811
        0.634404109311714        0.552880071134072
        0.640231336949565        0.562970708099768
        0.646058564587415        0.573173125142835
        0.651885792225266        0.583488241322943
        0.657713019863116         0.59391698757433
        0.663540247500967        0.604460305987959
        0.669367475138817        0.615119149712919
        0.675194702776668        0.625894483750923
        0.681021930414518        0.636787284364382
        0.686849158052369        0.647798539405072
        0.692676385690219        0.658929248700318
         0.69850361332807        0.670180423382921
         0.70433084096592           0.681553086988
        0.710158068603771        0.693048274165174
        0.715985296241621        0.704667032323765
        0.721812523879472        0.716410420225662
        0.727639751517322        0.728279508558378
        0.733466979155173        0.740275381321267
        0.739294206793023        0.752399133453444
        0.745121434430874        0.764651872367027
        0.750948662068724        0.777034718001164
        0.756775889706575        0.789548802467692
        0.762603117344425        0.802195269955651
        0.768430344982276        0.814975277522607
        0.774257572620126        0.827889994231819
        0.780084800257977        0.840940601705539
        0.785912027895827        0.854128294010274
        0.791739255533678        0.867454277592474
        0.797566483171528        0.880919771056383
        0.803393710809379        0.894526005760461
        0.809220938447229        0.908274225491657
         0.81504816608508        0.922165686477964
         0.82087539372293        0.936201657177334
        0.826702621360781        0.950383418434484
        0.832529848998631        0.964712263508645
        0.838357076636482        0.979189497758265
        0.844184304274332        0.993816438933891
        0.850011531912183          1.0085944169849
        0.855838759550033          1.0235247736547
        0.861665987187884         1.03860886326984
        0.867493214825734         1.05384805144032
        0.873320442463585         1.06924371618777
        0.879147670101435         1.08479724706331
        0.884974897739286         1.10051004518441
        0.890802125377136         1.11638352342649
        0.896629353014987         1.13241910587513
        0.902456580652837         1.14861822792236
        0.908283808290688         1.16498233618302
        0.914111035928538         1.18151288815365
        0.919938263566389         1.19821135219995
        0.925765491204239         1.21507920711994
         0.93159271884209          1.2321179425201
         0.93741994647994         1.24932905794488
        0.943247174117791         1.26671406313625
        0.949074401755641         1.28427447766238
        0.954901629393492         1.30201183068175
        0.960728857031342         1.31992766078041
        0.966556084669193         1.33802351547475
        0.972383312307043         1.35630095136121
        0.978210539944894         1.37476153358959
        0.984037767582744         1.39340683560709
        0.989864995220595          1.4122384388093
        0.995692222858445         1.43125793242304
          1.0015194504963         1.45046691302797
         1.00734667813415          1.4698669842974
           1.013173905772         1.48945975648189
         1.01900113340985         1.50924684650454
          1.0248283610477         1.52922987714067
         1.03065558868555         1.54941047668947
          1.0364828163234         1.56979027892285
         1.04231004396125         1.59037092234704
          1.0481372715991         1.61115404995899
         1.05396449923695         1.63214130871617
          1.0597917268748         1.65333434915263
         1.06561895451265         1.67473482493851
          1.0714461821505         1.69634439234199
         1.07727340978835         1.71816470981538
          1.0831006374262         1.74019743754103
         1.08892786506405         1.76244423681093
          1.0947550927019         1.78490676940139
         1.10058232033975          1.8075866975487
         1.10640954797761         1.83048568280713
         1.11223677561546         1.85360538580887
         1.11806400325331         1.87694746545786
         1.12389123089116         1.90051357866834
         1.12971845852901         1.92430537956748
         1.13554568616686         1.94832451875545
         1.14137291380471          1.9725726429211
         1.14720014144256         1.99705139396965
         1.15302736908041         2.02176240850014
         1.15885459671826         2.04670731716661
         1.16468182435611          2.0718877438778
         1.17050905199396           2.097305305047
         1.17633627963181         2.12296160901102
         1.18216350726966         2.14885825521924
         1.18799073490751         2.17499683348347
         1.19381796254536         2.20137892322843
         1.19964519018321         2.22800609269116
         1.20547241782106         2.25487989811137
