            sqrt(s) [GeV]               sigma [mb]
        0.706392814990222         14.6965100163786
         0.70890075269289         13.8957224727439
        0.711408690395558         13.2921229861263
        0.713916628098225         12.7581903350505
        0.716424565800893         12.2770150125829
         0.71893250350356         11.8394975915696
        0.721440441206228         11.4393874090873
        0.723948378908895         11.0719394169104
        0.726456316611563         10.7333673799786
         0.72896425431423         10.4205627352268
        0.731472192016898         10.1309266090242
        0.733980129719565         9.86225944221797
        0.736488067422233         9.61268057710698
          0.7389960051249         9.38057334143461
        0.741503942827568         9.16453861607132
        0.744011880530236         8.96336045500562
        0.746519818232903         8.77597814340819
        0.749027755935571         8.60146344400039
        0.751535693638238         8.43900180217373
        0.754043631340906         8.28787661868493
        0.756551569043573         8.14745592390385
        0.759059506746241         8.01718094312479
        0.761567444448908         7.89655616414514
        0.764075382151576          7.7851405899157
        0.766583319854243         7.68253993131525
        0.769091257556911         7.58839954119462
        0.771599195259579         7.50239793118526
        0.774107132962246         7.42424074151069
        0.776615070664914         7.35365506695851
        0.779123008367581         7.29038406838752
        0.781630946070249         7.23418181196581
        0.784138883772916         7.18480831311245
        0.786646821475584         7.14202477455545
        0.789154759178251         7.10558903269801
        0.791662696880919         7.07525125976573
        0.794170634583586           7.050749928553
        0.796678572286254         7.03180819262135
        0.799186509988921         7.01813068386162
        0.801694447691589         7.00940126029252
        0.804202385394257         7.00527952853502
        0.806710323096924         7.00540187418139
        0.809218260799592         7.00937962582165
        0.811726198502259          7.0168000190544
        0.814234136204927         7.02722779356274
        0.816742073907594         7.04020781408556
        0.819250011610262         7.05526869839635
        0.821757949312929         7.07192739246543
        0.824265887015597         7.08969457877479
        0.826773824718265         7.10808076095724
        0.829281762420932         7.12660282466973
          0.8317897001236         7.14479083829257
        0.834297637826267         7.16219484400276
        0.836805575528935         7.17839136884231
        0.839313513231602         7.19298941279007
         0.84182145093427         7.20563567835705
        0.844329388636937         7.21601885618157
        0.846837326339605         7.22387282870494
        0.849345264042272         7.22897870207318
         0.85185320174494         7.23116565161306
        0.854361139447607         7.23031060212428
        0.856869077150275         7.22633683522621
        0.859377014852943         7.21921164147369
         0.86188495255561         7.20894317650604
        0.864392890258278          7.1955766919324
        0.866900827960945         7.17919032326978
        0.869408765663613         7.15989061093185
         0.87191670336628         7.13780791913411
        0.874424641068948         7.11309189855583
        0.876932578771615         7.08590711587603
        0.879440516474283         7.05642894789171
         0.88194845417695         7.02483981196615
        0.884456391879618           6.991325783354
        0.886964329582286         6.95607362296794
        0.889472267284953         6.91926822752885
        0.891980204987621         6.88109049149701
        0.894488142690288         6.84171556540478
        0.896996080392956         6.80131147912931
        0.899504018095623         6.76003810082533
        0.902011955798291         6.71804639267184
        0.904519893500958         6.67547792702311
        0.907027831203626         6.63246462370795
        0.909535768906294         6.58912867637956
        0.912043706608961         6.54558263195987
        0.914551644311629         6.50192959353469
        0.917059582014296         6.45826352038665
        0.919567519716964         6.41466960160755
        0.922075457419631          6.3712246822668
        0.924583395122299         6.32799772454723
        0.927091332824966         6.28505029079471
        0.929599270527634         6.24243703560851
        0.932107208230301         6.20020619777586
        0.934615145932969         6.15840008381787
        0.937123083635636         6.11705553859278
        0.939631021338304         6.07620439799424
        0.942138959040972         6.03587392049164
        0.944646896743639         5.99608719547972
        0.947154834446307         5.95686352741576
        0.949662772148974          5.9182187956584
        0.952170709851642          5.8801657888325
        0.954678647554309         5.84271451503728
        0.957186585256977         5.80587248775641
        0.959694522959644          5.7696449899616
        0.962202460662312         5.73403531532969
        0.964710398364979         5.69904498958573
        0.967218336067647         5.66467397182428
        0.969726273770315         5.63092083788196
        0.972234211472982         5.59778294789136
         0.97474214917565         5.56525659644642
        0.977250086878317         5.53333714931978
        0.979758024580985         5.50201916681186
        0.982265962283652         5.47129651507882
         0.98477389998632         5.44116246576862
        0.987281837688987         5.41160978556873
        0.989789775391655         5.38263081701151
        0.992297713094322         5.35421755003955
         0.99480565079699         5.32636168634704
        0.997313588499658         5.29905469665623
        0.999821526202325         5.27228787149883
         1.00232946390499         5.24605236661716
         1.00483740160766         5.22033924302795
         1.00734533931033         5.19513950127311
           1.009853277013         5.17044411509352
         1.01236121471566          5.1462440562294
         1.01486915241833         5.12253031978242
           1.017377090121         5.09929394473604
         1.01988502782367         5.07652603234593
         1.02239296552633         5.05421776173565
           1.024900903229         5.03236040348254
         1.02740884093167         5.01094533117183
         1.02991677863434         4.98996403130871
           1.032424716337         4.96940811138611
         1.03493265403967         4.94926930685908
         1.03744059174234         4.92953948673743
         1.03994852944501         4.91021065812746
         1.04245646714767         4.89127496961773
         1.04496440485034         4.87272471397502
         1.04747234255301         4.85455233019543
         1.04998028025568         4.83675040444891
         1.05248821795834         4.81931167096095
         1.05499615566101          4.8022290117851
         1.05750409336368         4.78549545671038
         1.06001203106635         4.76910418232298
         1.06251996876901         4.75304851098785
         1.06502790647168         4.73732190941099
         1.06753584417435         4.72191798685003
         1.07004378187702         4.70683049328246
         1.07255171957968          4.6920535107779
         1.07505965728235         4.67758067775053
         1.07756759498502         4.66340634640282
         1.08007553268769         4.64952480719162
         1.08258347039035         4.63593047949758
         1.08509140809302         4.62261790890501
         1.08759934579569         4.60958176459126
         1.09010728349836         4.59681683639786
         1.09261522120102         4.58431803230413
         1.09512315890369         4.57208037534915
         1.09763109660636          4.5600990009553
         1.10013903430903         4.54836915404249
         1.10264697201169         4.53688618638935
         1.10515490971436           4.525645553644
         1.10766284741703         4.51464281262453
          1.1101707851197          4.5038736186653
         1.11267872282236         4.49333372274472
         1.11518666052503         4.48301896885566
          1.1176945982277         4.47292529131931
         1.12020253593037          4.4630487121964
         1.12271047363303         4.45338533870096
          1.1252184113357         4.44393136058999
         1.12772634903837         4.43468304775079
         1.13023428674104         4.42563674764034
          1.1327422244437         4.41678888285175
         1.13525016214637         4.40813594868462
         1.13775809984904         4.39967451093949
         1.14026603755171          4.3914012034742
         1.14277397525438         4.38331272592184
         1.14528191295704         4.37540584154504
         1.14778985065971         4.36767737491905
         1.15029778836238         4.36012420988187
         1.15280572606505         4.35274328717658
         1.15531366376771         4.34553160271899
         1.15782160147038         4.33848620524219
         1.16032953917305         4.33160419442468
         1.16283747687572         4.32488271888869
         1.16534541457838         4.31831897425846
         1.16785335228105         4.31191020127302
         1.17036128998372         4.30565368396352
         1.17286922768639         4.29954674791529
         1.17537716538905         4.29358675869496
         1.17788510309172         4.28777112024076
         1.18039304079439         4.28209727363139
         1.18290097849706         4.27656269613151
         1.18540891619972         4.27116490058456
         1.18791685390239         4.26590143619747
         1.19042479160506         4.26076989049985
         1.19293272930773         4.25576789530445
         1.19544066701039         4.25089314015568
         1.19794860471306         4.24614340690383
         1.20045654241573         4.24151667090994
          1.2029644801184         4.23701153345093
         1.20547241782106         4.23264539365885
