            sqrt(s) [GeV]               sigma [mb]
        0.645787727176078         3.92161777593779
        0.648598180292756         3.56046327982261
        0.651408633409434         3.42132128539624
        0.654219086526111         3.31868947356408
        0.657029539642789         3.23496903549993
        0.659839992759467         3.16335758090791
        0.662650445876144         3.10037106201225
        0.665460898992822         3.04394168083467
          0.6682713521095         2.99272256060563
        0.671081805226177         2.94577807221734
        0.673892258342855          2.9024267790817
        0.676702711459533         2.86215350655037
         0.67951316457621         2.82455784442391
        0.682323617692888         2.78932082145439
        0.685134070809566         2.75618337808061
        0.687944523926243         2.72493160138617
        0.690754977042921         2.69538633694376
        0.693565430159599         2.66739569105958
        0.696375883276276         2.64082949720875
        0.699186336392954         2.61557515049794
        0.701996789509632         2.59153442004849
        0.704807242626309         2.56862097061148
        0.707617695742987          2.5467584111263
        0.710428148859665         2.52587873730362
        0.713238601976342         2.50592107771447
         0.71604905509302         2.48683067052311
        0.718859508209698          2.4685580248595
        0.721669961326375         2.45105822453287
        0.724480414443053         2.43429034626217
        0.727290867559731         2.41821697464292
        0.730101320676408         2.40280378120789
        0.732911773793086         2.38801917958844
        0.735722226909764         2.37383401990644
        0.738532680026441         2.36022139300549
        0.741343133143119         2.34715615377007
        0.744153586259797         2.33461510249009
        0.746964039376474         2.32257656379103
        0.749774492493152          2.3110203011309
         0.75258494560983         2.29992737601058
        0.755395398726507         2.28928004971182
        0.758205851843185         2.27906166297314
        0.761016304959863         2.26925655167701
         0.76382675807654         2.25984996456918
        0.766637211193218         2.25082798968098
        0.769447664309896         2.24217748856615
        0.772258117426573         2.23388603723855
        0.775068570543251         2.22594187279386
        0.777879023659929         2.21833384531577
        0.780689476776606         2.21105137409757
        0.783499929893284         2.20408440822054
        0.786310383009962         2.19742339002415
        0.789120836126639         2.19105922219087
        0.791931289243317         2.18498323802952
        0.794741742359995         2.17918717376324
        0.797552195476672         2.17366314263132
         0.80036264859335         2.16840361275845
        0.803173101710028         2.16340138458076
        0.805983554826705         2.15864957177651
        0.808794007943383         2.15414158327425
        0.811604461060061         2.14987110534217
        0.814414914176739          2.1458320876694
        0.817225367293416         2.14201872685648
        0.820035820410094         2.13842545452219
        0.822846273526771         2.13504692472237
        0.825656726643449         2.13187800101418
        0.828467179760127         2.12891374692515
        0.831277632876804         2.12614941594166
        0.834088085993482         2.12358044035514
         0.83689853911016         2.12120242426716
        0.839708992226837         2.11901113482853
        0.842519445343515         2.11700249346729
        0.845329898460193         2.11517256980965
         0.84814035157687         2.11351757470896
        0.850950804693548         2.11203385275231
        0.853761257810226         2.11071787738582
        0.856571710926903         2.10956624501828
        0.859382164043581         2.10857566876099
        0.862192617160259         2.10774297437427
        0.865003070276936         2.10706509539628
        0.867813523393614         2.10653906745524
        0.870623976510292         2.10616202568431
        0.873434429626969         2.10593119961138
        0.876244882743647         2.10584390932638
        0.879055335860325         2.10589756235194
        0.881865788977003         2.10608964976341
         0.88467624209368         2.10641774313247
        0.887486695210358         2.10687949139469
        0.890297148327035           2.107472617828
        0.893107601443713         2.10819491733213
        0.895918054560391         2.10904425362916
        0.898728507677068          2.1100185569325
        0.901538960793746         2.11111582127839
        0.904349413910424         2.11233410247498
        0.907159867027101         2.11367151552359
        0.909970320143779         2.11512623312548
        0.912780773260457          2.1166964829531
        0.915591226377134         2.11838054628246
        0.918401679493812         2.12017675601322
         0.92121213261049         2.12208349476942
        0.924022585727168         2.12409919325865
        0.926833038843845         2.12622232900694
        0.929643491960523         2.12845142447303
          0.9324539450772         2.13078504555614
        0.935264398193878         2.13322180032074
        0.938074851310556         2.13576033782105
        0.940885304427234         2.13839934651325
        0.943695757543911         2.14113755298534
        0.946506210660589         2.14397372107677
        0.949316663777267         2.14690665048986
        0.952127116893944         2.14993517588179
        0.954937570010622         2.15305816544535
        0.957748023127299         2.15627452030244
        0.960558476243977         2.15958317329466
        0.963368929360655         2.16298308815361
        0.966179382477332          2.1664732585915
         0.96898983559401         2.17005270720949
        0.971800288710688         2.17372048498955
        0.974610741827366          2.1774756702591
        0.977421194944043         2.18131736803474
        0.980231648060721         2.18524470929885
        0.983042101177399         2.18925684997651
        0.985852554294076         2.19335297064137
        0.988663007410754         2.19753227559531
        0.991473460527432          2.2017939922915
        0.994283913644109         2.20613737079691
        0.997094366760787         2.21056168289807
        0.999904819877464         2.21506622182604
         1.00271527299414         2.21965030155049
         1.00552572611082         2.22431325621802
          1.0083361792275         2.22905443977112
         1.01114663234418         2.23387322516216
         1.01395708546085           2.238768942136
         1.01676753857753         2.24374112470766
         1.01957799169421         2.24878913827901
         1.02238844481089         2.25391242784133
         1.02519889792756         2.25911045512628
         1.02800935104424         2.26438269823542
         1.03081980416092         2.26972865139058
          1.0336302572776         2.27514782437646
         1.03644071039427         2.28063974229339
         1.03925116351095         2.28620394502277
         1.04206161662763         2.29183998693241
         1.04487206974431         2.29754743661644
         1.04768252286098         2.30332587646012
         1.05049297597766         2.30917490236344
         1.05330342909434         2.31509412326055
         1.05611388221102         2.32108316121242
          1.0589243353277         2.32714165051235
         1.06173478844437         2.33326923791908
         1.06454524156105         2.33946558210946
         1.06735569467773         2.34573035346534
         1.07016614779441         2.35206323379332
         1.07297660091108          2.3584639160983
         1.07578705402776         2.36493210426079
         1.07859750714444         2.37146751284987
         1.08140796026112         2.37806986686474
         1.08421841337779          2.3847389015244
         1.08702886649447         2.39147436190315
         1.08983931961115         2.39827600297197
         1.09264977272783         2.40514358915928
         1.09546022584451         2.41207689418401
         1.09827067896118         2.41907570091287
         1.10108113207786         2.42613980116207
         1.10389158519454         2.43326899537011
         1.10670203831122         2.44046309259674
         1.10951249142789         2.44772191021945
         1.11232294454457         2.45504527378487
         1.11513339766125         2.46243301681703
         1.11794385077793         2.46988498064466
          1.1207543038946         2.47740101429555
         1.12356475701128         2.48498097425086
         1.12637521012796         2.49262472435977
         1.12918566324464         2.50033213561128
         1.13199611636131         2.50810308600825
         1.13480656947799         2.51593746044725
         1.13761702259467         2.52383515058527
         1.14042747571135         2.53179605463875
         1.14323792882803         2.53982007728407
          1.1460483819447          2.5479071294931
         1.14885883506138         2.55605712843797
         1.15166928817806         2.56426999736618
         1.15447974129474         2.57254566541361
         1.15729019441141         2.58088406758381
         1.16010064752809         2.58928514453441
         1.16291110064477         2.59774884247456
         1.16572155376145         2.60627511307419
         1.16853200687812          2.6148637755317
          1.1713424599948           2.623515068498
         1.17415291311148         2.63222882077154
         1.17696336622816         2.64100500476306
         1.17977381934484         2.64984359775173
         1.18258427246151         2.65874458184918
         1.18539472557819         2.66770794389424
         1.18820517869487         2.67673367528239
         1.19101563181155         2.68582177200321
         1.19382608492822         2.69497223438797
          1.1966365380449         2.70418506715488
         1.19944699116158         2.71346027930394
         1.20225744427826         2.72279788385405
         1.20506789739493         2.73219789801685
