            sqrt(s) [GeV]               sigma [mb]
       0.0335780781439948      0.00120809581507287
       0.0394649616578186      0.00119322398624651
       0.0453518451716425      0.00137926713035095
       0.0512387286854663      0.00168558847902331
       0.0571256121992901      0.00208429312336625
       0.0630124957131139      0.00256060373898144
       0.0688993792269377      0.00310599155456707
       0.0747862627407615      0.00371525531813458
       0.0806731462545853      0.00438509691568868
       0.0865600297684091      0.00511336850362073
       0.0924469132822329      0.00589865020502819
       0.0983337967960567      0.00674000167043335
        0.104220680309881      0.00763680994397519
        0.110107563823704      0.00858869308623226
        0.115994447337528      0.00959543728089737
        0.121881330851352         0.01065695463451
        0.127768214365176       0.0117732542006982
           0.133655097879       0.0129444216609816
        0.139541981392823        0.014170604744423
        0.145428864906647       0.0154520026743765
        0.151315748420471       0.0167888580478856
        0.157202631934295       0.0181814511369087
        0.163089515448119       0.0196300951058778
        0.168976398961942       0.0211351325921574
        0.174863282475766       0.0226969323224673
         0.18075016598959       0.0243158878944181
        0.186637049503414       0.0259924148072832
        0.192523933017238        0.027726949493258
        0.198410816531061       0.0295199478333515
        0.204297700044885       0.0313718841249871
        0.210184583558709       0.0332832500669483
        0.216071467072533       0.0352545539186809
        0.221958350586357       0.0372863198202604
         0.22784523410018       0.0393790870966378
        0.233732117614004       0.0415334094654678
        0.239619001127828       0.0437498550026815
        0.245505884641652       0.0460290051398207
        0.251392768155476       0.0483714544101913
          0.2572796516693        0.050777809847614
        0.263166535183123       0.0532486911041665
        0.269053418696947       0.0557847293745094
        0.274940302210771       0.0583865676615463
        0.280827185724595       0.0610548598299636
        0.286714069238419       0.0637902708927193
        0.292600952752242       0.0665934762816034
        0.298487836266066       0.0694651616975652
         0.30437471977989       0.0724060226004149
        0.310261603293714       0.0754167649052541
        0.316148486807538       0.0784981031181035
        0.322035370321361       0.0816507614283174
        0.327922253835185       0.0848754730817381
        0.333809137349009       0.0881729793941019
        0.339696020862833       0.0915440307316366
        0.345582904376657       0.0949893859908498
         0.35146978789048       0.0985098112630184
        0.357356671404304        0.102106081301434
        0.363243554918128        0.105778978180012
        0.369130438431952        0.109529291247063
        0.375017321945776         0.11335781783043
          0.3809042054596        0.117265361539753
        0.386791088973423        0.121252733123674
        0.392677972487247        0.125320750857396
        0.398564856001071        0.129470238586547
        0.404451739514895        0.133702026952655
        0.410338623028719        0.138016953114922
        0.416225506542542        0.142415860414059
        0.422112390056366        0.146899598010427
         0.42799927357019        0.151469021214466
        0.433886157084014        0.156124990059422
        0.439773040597838        0.160868371941961
        0.445659924111661         0.16570003896226
        0.451546807625485        0.170620868336553
        0.457433691139309        0.175631743288474
        0.463320574653133         0.18073355156686
        0.469207458166957        0.185927186931891
         0.47509434168078         0.19121354762596
        0.480981225194604        0.196593537319504
        0.486868108708428        0.202068064226444
        0.492754992222252        0.207638041889519
        0.498641875736076        0.213304388350958
        0.504528759249899        0.219068026871365
        0.510415642763723        0.224929885201223
        0.516302526277547        0.230890895868355
        0.522189409791371        0.236951996232318
        0.528076293305195        0.243114128637632
        0.533963176819019        0.249378239235103
        0.539850060332842        0.255745280044815
        0.545736943846666         0.26221620729148
         0.55162382736049         0.26879198098564
        0.557510710874314         0.27547356804475
        0.563397594388138        0.282261938308693
        0.569284477901961         0.28915806710227
        0.575171361415785         0.29616293496079
        0.581058244929609        0.303277526517428
        0.586945128443433        0.310502832060827
        0.592832011957257        0.317839846766551
         0.59871889547108        0.325289570506917
        0.604605778984904        0.332853008922836
        0.610492662498728        0.340531172454993
        0.616379546012552        0.348325077233781
        0.622266429526376        0.356235744897288
        0.628153313040199         0.36426420195732
        0.634040196554023         0.37241148154772
        0.639927080067847        0.380678621859806
        0.645813963581671        0.389066667359639
        0.651700847095495        0.397576668373788
        0.657587730609319        0.406209681347814
        0.663474614123142        0.414966769032101
        0.669361497636966         0.42384900105465
         0.67524838115079         0.43285745285131
        0.681135264664614         0.44199320711786
        0.687022148178438        0.451257353300125
        0.692909031692261        0.460650988156255
        0.698795915206085        0.470175214722638
        0.704682798719909        0.479831144634059
        0.710569682233733        0.489619896383076
        0.716456565747557        0.499542596679979
         0.72234344926138        0.509600379421763
        0.728230332775204        0.519794387143799
        0.734117216289028        0.530125770318102
        0.740004099802852        0.540595688314165
        0.745890983316676        0.551205308695012
        0.751777866830499        0.561955808122017
        0.757664750344323        0.572848372071617
        0.763551633858147        0.583884195407166
        0.769438517371971        0.595064482706079
        0.775325400885795        0.606390446584679
        0.781212284399618        0.617863311917913
        0.787099167913442        0.629484311593727
        0.792986051427266        0.641254689457711
         0.79887293494109        0.653175699547094
        0.804759818454914        0.665248606664196
        0.810646701968737        0.677474685629137
        0.816533585482561        0.689855223069457
        0.822420468996385         0.70239151618296
        0.828307352510209        0.715084873563651
        0.834194236024033        0.727936615207216
        0.840081119537857        0.740948072770884
         0.84596800305168        0.754120589608921
        0.851854886565504        0.767455521224149
        0.857741770079328        0.780954234945146
        0.863628653593152        0.794618110542064
        0.869515537106976        0.808448540077636
        0.875402420620799        0.822446928407926
        0.881289304134623        0.836614692822391
        0.887176187648447        0.850953263385092
        0.893063071162271        0.865464083429598
        0.898949954676095        0.880148609102805
        0.904836838189918        0.895008309782573
        0.910723721703742        0.910044668114554
        0.916610605217566        0.925259180193242
         0.92249748873139        0.940653355512123
        0.928384372245214        0.956228717147295
        0.934271255759037        0.971986801733397
        0.940158139272861        0.987929159693964
        0.946045022786685         1.00405735501232
        0.951931906300509         1.02037296560339
        0.957818789814333         1.03687758320401
        0.963705673328156           1.053572813145
         0.96959255684198         1.07046027489595
        0.975479440355804         1.08754160158055
        0.981366323869628         1.10481844008652
        0.987253207383452         1.12229245156104
        0.993140090897276         1.13996531029084
        0.999026974411099         1.15783870475547
         1.00491385792492         1.17591433696168
         1.01080074143875          1.1941939225112
         1.01668762495257         1.21267919058543
         1.02257450846639         1.23137188377327
         1.02846139198022         1.25027375795079
         1.03434827549404         1.26938658226714
         1.04023515900787         1.28871213893822
         1.04612204252169         1.30825222303354
         1.05200892603551         1.32800864243051
         1.05789580954934         1.34798321757008
         1.06378269306316         1.36817778128305
         1.06966957657699         1.38859417865598
         1.07555646009081         1.40923426651591
         1.08144334360463         1.43009991367482
         1.08733022711846         1.45119300025636
         1.09321711063228         1.47251541763541
          1.0991039941461         1.49406906808209
         1.10499087765993         1.51585586447195
         1.11087776117375         1.53787773001739
         1.11676464468758         1.56013659782219
          1.1226515282014         1.58263441079455
         1.12853841171522         1.60537312062785
         1.13442529522905         1.62835468843417
         1.14031217874287         1.65158108342683
         1.14619906225669         1.67505428294744
         1.15208594577052         1.69877627193398
         1.15797282928434         1.72274904244659
         1.16385971279817         1.74697459321388
         1.16974659631199          1.7714549291041
         1.17563347982581          1.7961920607037
         1.18152036333964         1.82118800365541
         1.18740724685346         1.84644477820205
         1.19329413036729         1.87196440857777
         1.19918101388111         1.89774892245466
         1.20506789739493         1.92380035027977
