                   T[GeV]                eta[GeV^3]
        0.120000000000000         0.025271259557209
        0.121000000000000         0.025718337672245
        0.122000000000000         0.026172714649619
        0.123000000000000         0.026634451729271
        0.124000000000000         0.027103537638532
        0.125000000000000         0.027580103876982
        0.126000000000000         0.028064204942320
        0.127000000000000         0.028555689494432
        0.128000000000000         0.029055274967055
        0.129000000000000         0.029562371132175
        0.130000000000000         0.030077250066188
        0.131000000000000         0.030599996860748
        0.132000000000000         0.031130735499574
        0.133000000000000         0.031669400853611
        0.134000000000000         0.032216209944473
        0.135000000000000         0.032770998092282
        0.136000000000000         0.033333822868851
        0.137000000000000         0.033904938443378
        0.138000000000000         0.034484400965251
        0.139000000000000         0.035071889693750
        0.140000000000000         0.035667742817569
        0.141000000000000         0.036271995858729
        0.142000000000000         0.036884673761011
        0.143000000000000         0.037505640373432
        0.144000000000000         0.038135000816700
        0.145000000000000         0.038772681957827
        0.146000000000000         0.039418842764504
        0.147000000000000         0.040073309510313
        0.148000000000000         0.040736161966070
        0.149000000000000         0.041407271649094
        0.150000000000000         0.042086615552214
        0.151000000000000         0.042774125560486
        0.152000000000000         0.043469726818664
        0.153000000000000         0.044173249842873
        0.154000000000000         0.044884587649132
        0.155000000000000         0.045603637075816
        0.156000000000000         0.046330017529188
        0.157000000000000         0.047063961103040
        0.158000000000000         0.047804839352644
        0.159000000000000         0.048552206304956
        0.160000000000000         0.049306026944872
        0.161000000000000         0.050065813092788
        0.162000000000000         0.050830913307816
        0.163000000000000         0.051600918677124
        0.164000000000000         0.052375175840971
        0.165000000000000         0.053152723835630
        0.166000000000000         0.053932592562378
        0.167000000000000         0.054714003476059
        0.168000000000000         0.055495032742713
        0.169000000000000         0.056274774615078
        0.170000000000000         0.057044114359871
        0.171000000000000         0.057821898656901
        0.172000000000000         0.058581514066890
        0.173000000000000         0.059315946685302
        0.174000000000000         0.060050466994420
        0.175000000000000         0.060757451003046
        0.176000000000000         0.061460981314475
        0.177000000000000         0.062095264248038
        0.178000000000000         0.062649090471563
        0.179000000000000         0.063147884817145
        0.180000000000000         0.063540569331675
        0.181000000000000         0.063991330987978
        0.182000000000000         0.064607567077631
        0.183000000000000         0.065299680476851
        0.184000000000000         0.066041227834406
        0.185000000000000         0.066823742067456
        0.186000000000000         0.067634000212558
        0.187000000000000         0.068467100170880
        0.188000000000000         0.069317371571461
        0.189000000000000         0.070179934162818
        0.190000000000000         0.071049971286731
        0.191000000000000         0.071923131058080
        0.192000000000000         0.072794750902014
        0.193000000000000         0.073660660673343
        0.194000000000000         0.074516483325813
        0.195000000000000         0.075357668551582
        0.196000000000000         0.076179991452046
        0.197000000000000         0.076979274738296
        0.198000000000000         0.077751303135034
        0.199000000000000         0.078492103850083
        0.200000000000000         0.079197639697755
        0.201000000000000         0.079863808867797
        0.202000000000000         0.080485956197412
        0.203000000000000         0.081058856264903
        0.204000000000000         0.081574462290191
        0.205000000000000         0.082022591350010
        0.206000000000000         0.082387372297698
        0.207000000000000         0.082641688408154
        0.208000000000000         0.082738700452658
        0.209000000000000         0.082585752954835
        0.210000000000000         0.081999948633767
        0.211000000000000         0.081139976368674
        0.212000000000000         0.078857698036506
        0.213000000000000         0.078259124396173
        0.214000000000000         0.078326762178078
        0.215000000000000         0.078737320674857
        0.216000000000000         0.079371385641625
        0.217000000000000         0.080168242519960
        0.218000000000000         0.081092750272192
        0.219000000000000         0.082120763337852
        0.220000000000000         0.083237658891261
        0.221000000000000         0.084432192608806
        0.222000000000000         0.085696116687290
        0.223000000000000         0.087023056501704
        0.224000000000000         0.088408756899319
        0.225000000000000         0.089849600914827
        0.226000000000000         0.091342831814432
        0.227000000000000         0.092886258626780
        0.228000000000000         0.094478670316343
        0.229000000000000         0.096118220129948
        0.230000000000000         0.097803455329481
        0.231000000000000         0.099534867276937
        0.232000000000000         0.101311310596539
        0.233000000000000         0.103132366619853
        0.234000000000000         0.104997994854509
        0.235000000000000         0.106907791662135
        0.236000000000000         0.108861837299117
        0.237000000000000         0.110861286753978
        0.238000000000000         0.112904334848426
        0.239000000000000         0.114991544140016
        0.240000000000000         0.117123900796191
        0.241000000000000         0.119301386660179
        0.242000000000000         0.121524883365746
        0.243000000000000         0.123792988494567
        0.244000000000000         0.126109915353957
        0.245000000000000         0.128471899035593
        0.246000000000000         0.130880593585473
        0.247000000000000         0.133338068317283
        0.248000000000000         0.135842362443270
        0.249000000000000         0.138396554965726
        0.250000000000000         0.141001441625369
        0.251000000000000         0.143655570952708
        0.252000000000000         0.146360610833022
        0.253000000000000         0.149117232578012
        0.254000000000000         0.151926385248485
        0.255000000000000         0.154788583587907
        0.256000000000000         0.157697493726442
        0.257000000000000         0.160674368891559
        0.258000000000000         0.163699174054955
        0.259000000000000         0.166777693454729
        0.260000000000000         0.169913823662775
        0.261000000000000         0.173107496249599
        0.262000000000000         0.176360662897755
        0.263000000000000         0.179670454744155
        0.264000000000000         0.183038125024731
        0.265000000000000         0.186468174797973
        0.266000000000000         0.189961669434590
        0.267000000000000         0.193517856037871
        0.268000000000000         0.197125281180284
        0.269000000000000         0.200815062721274
        0.270000000000000         0.204563048830425
        0.271000000000000         0.208399387037362
        0.272000000000000         0.212257806882740
        0.273000000000000         0.216208661105076
        0.274000000000000         0.220227731009137
        0.275000000000000         0.224325837480836
        0.276000000000000         0.228493426511468
        0.277000000000000         0.232724594610546
        0.278000000000000         0.237027777215058
        0.279000000000000         0.241415190995882
        0.280000000000000         0.245871701355388
        0.281000000000000         0.250399571562779
        0.282000000000000         0.255022047822125
        0.283000000000000         0.259691490822116
        0.284000000000000         0.264452424242436
        0.285000000000000         0.269294099212318
        0.286000000000000         0.274236571265591
        0.287000000000000         0.279213975362164
        0.288000000000000         0.284331243425056
        0.289000000000000         0.289505370300725
        0.290000000000000         0.294773852701681
        0.291000000000000         0.300126859758164
        0.292000000000000         0.305559281298361
        0.293000000000000         0.311084997273827
        0.294000000000000         0.316728866591410
        0.295000000000000         0.322431535883634
        0.296000000000000         0.328235779206439
        0.297000000000000         0.334144534195491
        0.298000000000000         0.340143076851494
        0.299000000000000         0.346202180220010
        0.300000000000000         0.352418183663020
